# First column is time, second column is the perturbation of detonation velocity.
  0.0000000000000000e+00   1.0000000000000000e-10
  5.0000000000000001e-03   1.0022501619882799e-10
  1.0000000000000000e-02   1.0045029837120555e-10
  1.4999999999999999e-02   1.0067924249498926e-10
  2.0000000000000000e-02   1.0091240707137386e-10
  2.5000000000000001e-02   1.0114965846968361e-10
  2.9999999999999999e-02   1.0139084897790332e-10
  3.5000000000000003e-02   1.0163594938717947e-10
  4.0000000000000001e-02   1.0188503822258593e-10
  4.4999999999999998e-02   1.0213819917250302e-10
  5.0000000000000003e-02   1.0239553526535519e-10
  5.5000000000000000e-02   1.0265713586698385e-10
  5.9999999999999998e-02   1.0292309576618099e-10
  6.5000000000000002e-02   1.0319350943608277e-10
  7.0000000000000007e-02   1.0346847348138123e-10
  7.4999999999999997e-02   1.0374808892795855e-10
  8.0000000000000002e-02   1.0403245774363177e-10
  8.5000000000000006e-02   1.0432168637742926e-10
  8.9999999999999997e-02   1.0461588297787718e-10
  9.5000000000000001e-02   1.0491515939762049e-10
  1.0000000000000001e-01   1.0521963022956434e-10
  1.0500000000000000e-01   1.0552941331169869e-10
  1.1000000000000000e-01   1.0584462984014359e-10
  1.1500000000000000e-01   1.0616540424627845e-10
  1.2000000000000000e-01   1.0649186459265035e-10
  1.2500000000000000e-01   1.0682414241620473e-10
  1.3000000000000000e-01   1.0716237304013166e-10
  1.3500000000000001e-01   1.0750669556337609e-10
  1.4000000000000001e-01   1.0785725304197522e-10
  1.4499999999999999e-01   1.0821419259352623e-10
  1.4999999999999999e-01   1.0857766551327675e-10
  1.5500000000000000e-01   1.0894782742390255e-10
  1.6000000000000000e-01   1.0932483838431336e-10
  1.6500000000000001e-01   1.0970886304423860e-10
  1.7000000000000001e-01   1.1010007076881708e-10
  1.7500000000000002e-01   1.1049863578795438e-10
  1.7999999999999999e-01   1.1090473733718808e-10
  1.8500000000000000e-01   1.1131855980522764e-10
  1.9000000000000000e-01   1.1174029288490393e-10
  1.9500000000000001e-01   1.1217013172344475e-10
  2.0000000000000001e-01   1.1260827707844373e-10
  2.0500000000000002e-01   1.1305493547242645e-10
  2.0999999999999999e-01   1.1351031935108306e-10
  2.1500000000000000e-01   1.1397464724099577e-10
  2.2000000000000000e-01   1.1444814390837036e-10
  2.2500000000000001e-01   1.1493104051734833e-10
  2.3000000000000001e-01   1.1542357478714778e-10
  2.3500000000000001e-01   1.1592599114761944e-10
  2.3999999999999999e-01   1.1643854089169491e-10
  2.4500000000000000e-01   1.1696148232412043e-10
  2.5000000000000000e-01   1.1749508090483091e-10
  2.5500000000000000e-01   1.1803960938575903e-10
  2.6000000000000001e-01   1.1859534793931781e-10
  2.6500000000000001e-01   1.1916258427672756e-10
  2.7000000000000002e-01   1.1974161375410273e-10
  2.7500000000000002e-01   1.2033273946386950e-10
  2.8000000000000003e-01   1.2093627230887996e-10
  2.8500000000000003e-01   1.2155253105615530e-10
  2.8999999999999998e-01   1.2218184236688903e-10
  2.9499999999999998e-01   1.2282454079887318e-10
  2.9999999999999999e-01   1.2348096877708060e-10
  3.0499999999999999e-01   1.2415147652760987e-10
  3.1000000000000000e-01   1.2483642196964730e-10
  3.1500000000000000e-01   1.2553617055947295e-10
  3.2000000000000001e-01   1.2625109507987077e-10
  3.2500000000000001e-01   1.2698157536754540e-10
  3.3000000000000002e-01   1.2772799797034974e-10
  3.3500000000000002e-01   1.2849075572522948e-10
  3.4000000000000002e-01   1.2927024724684515e-10
  3.4500000000000003e-01   1.3006687631578098e-10
  3.5000000000000003e-01   1.3088105115414928e-10
  3.5499999999999998e-01   1.3171318357518907e-10
  3.5999999999999999e-01   1.3256368799220459e-10
  3.6499999999999999e-01   1.3343298027083363e-10
  3.7000000000000000e-01   1.3432147640724165e-10
  3.7500000000000000e-01   1.3522959101337860e-10
  3.8000000000000000e-01   1.3615773558894214e-10
  3.8500000000000001e-01   1.3710631655820053e-10
  3.9000000000000001e-01   1.3807573304833347e-10
  3.9500000000000002e-01   1.3906637438453657e-10
  4.0000000000000002e-01   1.4007861727581494e-10
  4.0500000000000003e-01   1.4111282266424979e-10
  4.1000000000000003e-01   1.4216933220962058e-10
  4.1500000000000004e-01   1.4324846438070896e-10
  4.1999999999999998e-01   1.4435051012450440e-10
  4.2499999999999999e-01   1.4547572808500854e-10
  4.2999999999999999e-01   1.4662433934453751e-10
  4.3500000000000000e-01   1.4779652166257544e-10
  4.4000000000000000e-01   1.4899240319045833e-10
  4.4500000000000001e-01   1.5021205564478247e-10
  4.5000000000000001e-01   1.5145548692863877e-10
  4.5500000000000002e-01   1.5272263319782831e-10
  4.6000000000000002e-01   1.5401335037948604e-10
  4.6500000000000002e-01   1.5532740516319624e-10
  4.7000000000000003e-01   1.5666446550013482e-10
  4.7500000000000003e-01   1.5802409066419580e-10
  4.7999999999999998e-01   1.5940572095068021e-10
  4.8499999999999999e-01   1.6080866711314479e-10
  4.8999999999999999e-01   1.6223209966733514e-10
  4.9500000000000000e-01   1.6367503822277971e-10
  5.0000000000000000e-01   1.6513634103716826e-10
  5.0500000000000000e-01   1.6661469502559683e-10
  5.1000000000000001e-01   1.6810860649525494e-10
  5.1500000000000001e-01   1.6961639291498774e-10
  5.2000000000000002e-01   1.7113617606683803e-10
  5.2500000000000002e-01   1.7266587696122309e-10
  5.3000000000000003e-01   1.7420321292650280e-10
  5.3500000000000003e-01   1.7574569730468518e-10
  5.4000000000000004e-01   1.7729064219494159e-10
  5.4500000000000004e-01   1.7883516468237794e-10
  5.5000000000000004e-01   1.8037619696807095e-10
  5.5500000000000005e-01   1.8191050077491805e-10
  5.6000000000000005e-01   1.8343468634005763e-10
  5.6500000000000006e-01   1.8494523621709757e-10
  5.7000000000000006e-01   1.8643853399973988e-10
  5.7500000000000007e-01   1.8791089794377696e-10
  5.7999999999999996e-01   1.8935861930960263e-10
  5.8499999999999996e-01   1.9077800507683861e-10
  5.8999999999999997e-01   1.9216542450280286e-10
  5.9499999999999997e-01   1.9351735881522238e-10
  5.9999999999999998e-01   1.9483045315601514e-10
  6.0499999999999998e-01   1.9610156973711465e-10
  6.0999999999999999e-01   1.9732784104106059e-10
  6.1499999999999999e-01   1.9850672180782392e-10
  6.2000000000000000e-01   1.9963603850275130e-10
  6.2500000000000000e-01   2.0071403496419247e-10
  6.3000000000000000e-01   2.0173941298599230e-10
  6.3500000000000001e-01   2.0271136669910306e-10
  6.4000000000000001e-01   2.0362960977430415e-10
  6.4500000000000002e-01   2.0449439466750808e-10
  6.5000000000000002e-01   2.0530652336085835e-10
  6.5500000000000003e-01   2.0606734930533928e-10
  6.6000000000000003e-01   2.0677877053139055e-10
  6.6500000000000004e-01   2.0744321415044349e-10
  6.7000000000000004e-01   2.0806361271048796e-10
  6.7500000000000004e-01   2.0864337308240698e-10
  6.8000000000000005e-01   2.0918633873275877e-10
  6.8500000000000005e-01   2.0969674637726599e-10
  6.9000000000000006e-01   2.1017917810453120e-10
  6.9500000000000006e-01   2.1063851011103123e-10
  7.0000000000000007e-01   2.1107985919818419e-10
  7.0499999999999996e-01   2.1150852815402719e-10
  7.0999999999999996e-01   2.1192995108104728e-10
  7.1499999999999997e-01   2.1234963964414485e-10
  7.1999999999999997e-01   2.1277313110509602e-10
  7.2499999999999998e-01   2.1320593888885396e-10
  7.2999999999999998e-01   2.1365350629871033e-10
  7.3499999999999999e-01   2.1412116386726257e-10
  7.3999999999999999e-01   2.1461409070310571e-10
  7.4500000000000000e-01   2.1513728007289514e-10
  7.5000000000000000e-01   2.1569550934787916e-10
  7.5500000000000000e-01   2.1629331434514977e-10
  7.6000000000000001e-01   2.1693496800790947e-10
  7.6500000000000001e-01   2.1762446329650430e-10
  7.7000000000000002e-01   2.1836550010272402e-10
  7.7500000000000002e-01   2.1916147595343761e-10
  7.8000000000000003e-01   2.2001548023507336e-10
  7.8500000000000003e-01   2.2093029164672431e-10
  7.9000000000000004e-01   2.2190837857549677e-10
  7.9500000000000004e-01   2.2295190208180774e-10
  8.0000000000000004e-01   2.2406272118342677e-10
  8.0500000000000005e-01   2.2524240013384181e-10
  8.1000000000000005e-01   2.2649221740187954e-10
  8.1500000000000006e-01   2.2781317607438312e-10
  8.2000000000000006e-01   2.2920601542110339e-10
  8.2500000000000007e-01   2.3067122338013486e-10
  8.3000000000000007e-01   2.3220904974232429e-10
  8.3499999999999996e-01   2.3381951983369255e-10
  8.3999999999999997e-01   2.3550244851541591e-10
  8.4499999999999997e-01   2.3725745434101545e-10
  8.4999999999999998e-01   2.3908397372977239e-10
  8.5499999999999998e-01   2.4098127503378968e-10
  8.5999999999999999e-01   2.4294847239342537e-10
  8.6499999999999999e-01   2.4498453929192163e-10
  8.7000000000000000e-01   2.4708832173485483e-10
  8.7500000000000000e-01   2.4925855099357309e-10
  8.8000000000000000e-01   2.5149385586404659e-10
  8.8500000000000001e-01   2.5379277440351754e-10
  8.9000000000000001e-01   2.5615376511717252e-10
  8.9500000000000002e-01   2.5857521757569188e-10
  9.0000000000000002e-01   2.6105546245211842e-10
  9.0500000000000003e-01   2.6359278097307076e-10
  9.1000000000000003e-01   2.6618541378501942e-10
  9.1500000000000004e-01   2.6883156924112616e-10
  9.2000000000000004e-01   2.7152943111825532e-10
  9.2500000000000004e-01   2.7427716577710423e-10
  9.3000000000000005e-01   2.7707292878118016e-10
  9.3500000000000005e-01   2.7991487099252730e-10
  9.4000000000000006e-01   2.8280114416384807e-10
  9.4500000000000006e-01   2.8572990604793030e-10
  9.5000000000000007e-01   2.8869932504621545e-10
  9.5500000000000007e-01   2.9170758441892135e-10
  9.5999999999999996e-01   2.9475288607944580e-10
  9.6499999999999997e-01   2.9783345399584009e-10
  9.6999999999999997e-01   3.0094753722201858e-10
  9.7499999999999998e-01   3.0409341258104885e-10
  9.7999999999999998e-01   3.0726938702244379e-10
  9.8499999999999999e-01   3.1047379967481533e-10
  9.8999999999999999e-01   3.1370502361458503e-10
  9.9500000000000000e-01   3.1696146737076852e-10
  1.0000000000000000e+00   3.2024157618502795e-10
  1.0050000000000001e+00   3.2354383304542166e-10
  1.0100000000000000e+00   3.2686675951141711e-10
  1.0150000000000001e+00   3.3020891634689562e-10
  1.0200000000000000e+00   3.3356890397702201e-10
  1.0249999999999999e+00   3.3694536278398091e-10
  1.0300000000000000e+00   3.4033697325577848e-10
  1.0349999999999999e+00   3.4374245600143533e-10
  1.0400000000000000e+00   3.4716057164511637e-10
  1.0449999999999999e+00   3.5059012061094934e-10
  1.0500000000000000e+00   3.5402994280952175e-10
  1.0549999999999999e+00   3.5747891723631077e-10
  1.0600000000000001e+00   3.6093596149160273e-10
  1.0649999999999999e+00   3.6440003123078833e-10
  1.0700000000000001e+00   3.6787011955325315e-10
  1.0750000000000000e+00   3.7134525633751550e-10
  1.0800000000000001e+00   3.7482450752963775e-10
  1.0850000000000000e+00   3.7830697439141378e-10
  1.0900000000000001e+00   3.8179179271432328e-10
  1.0950000000000000e+00   3.8527813200472012e-10
  1.1000000000000001e+00   3.8876519464531461e-10
  1.1050000000000000e+00   3.9225221503751813e-10
  1.1100000000000001e+00   3.9573845872887273e-10
  1.1150000000000000e+00   3.9922322152937198e-10
  1.1200000000000001e+00   4.0270582862013611e-10
  1.1250000000000000e+00   4.0618563365759088e-10
  1.1300000000000001e+00   4.0966201787598197e-10
  1.1350000000000000e+00   4.1313438919076327e-10
  1.1400000000000001e+00   4.1660218130517017e-10
  1.1450000000000000e+00   4.2006485282201035e-10
  1.1500000000000001e+00   4.2352188636250432e-10
  1.1550000000000000e+00   4.2697278769379568e-10
  1.1599999999999999e+00   4.3041708486655771e-10
  1.1650000000000000e+00   4.3385432736396219e-10
  1.1699999999999999e+00   4.3728408526311355e-10
  1.1750000000000000e+00   4.4070594840989889e-10
  1.1799999999999999e+00   4.4411952560807625e-10
  1.1850000000000001e+00   4.4752444382333979e-10
  1.1899999999999999e+00   4.5092034740292759e-10
  1.1950000000000001e+00   4.5430689731129683e-10
  1.2000000000000000e+00   4.5768377038229238e-10
  1.2050000000000001e+00   4.6105065858814514e-10
  1.2100000000000000e+00   4.6440726832557829e-10
  1.2150000000000001e+00   4.6775331971923677e-10
  1.2200000000000000e+00   4.7108854594262784e-10
  1.2250000000000001e+00   4.7441269255666081e-10
  1.2300000000000000e+00   4.7772551686590599e-10
  1.2350000000000001e+00   4.8102678729261181e-10
  1.2400000000000000e+00   4.8431628276851045e-10
  1.2450000000000001e+00   4.8759379214443006e-10
  1.2500000000000000e+00   4.9085911361771552e-10
  1.2550000000000001e+00   4.9411205417743828e-10
  1.2600000000000000e+00   4.9735242906738231e-10
  1.2650000000000001e+00   5.0058006126681057e-10
  1.2700000000000000e+00   5.0379478098898435e-10
  1.2750000000000001e+00   5.0699642519744460e-10
  1.2800000000000000e+00   5.1018483714007767e-10
  1.2849999999999999e+00   5.1335986590098507e-10
  1.2900000000000000e+00   5.1652136597022524e-10
  1.2949999999999999e+00   5.1966919683148805e-10
  1.3000000000000000e+00   5.2280322256782429e-10
  1.3049999999999999e+00   5.2592331148554032e-10
  1.3100000000000001e+00   5.2902933575646527e-10
  1.3149999999999999e+00   5.3212117107875039e-10
  1.3200000000000001e+00   5.3519869635648103e-10
  1.3250000000000000e+00   5.3826179339837743e-10
  1.3300000000000001e+00   5.4131034663591743e-10
  1.3350000000000000e+00   5.4434424286125338e-10
  1.3400000000000001e+00   5.4736337098537051e-10
  1.3450000000000000e+00   5.5036762181695710e-10
  1.3500000000000001e+00   5.5335688786253670e-10
  1.3550000000000000e+00   5.5633106314843661e-10
  1.3600000000000001e+00   5.5929004306527183e-10
  1.3650000000000000e+00   5.6223372423563422e-10
  1.3700000000000001e+00   5.6516200440578248e-10
  1.3750000000000000e+00   5.6807478236214946e-10
  1.3800000000000001e+00   5.7097195787358271e-10
  1.3850000000000000e+00   5.7385343166027682e-10
  1.3900000000000001e+00   5.7671910539042790e-10
  1.3950000000000000e+00   5.7956888170568982e-10
  1.4000000000000001e+00   5.8240266427660435e-10
  1.4050000000000000e+00   5.8522035788920064e-10
  1.4099999999999999e+00   5.8802186856404430e-10
  1.4150000000000000e+00   5.9080710370905414e-10
  1.4199999999999999e+00   5.9357597230749339e-10
  1.4250000000000000e+00   5.9632838514249457e-10
  1.4299999999999999e+00   5.9906425505966539e-10
  1.4350000000000001e+00   6.0178349726919798e-10
  1.4399999999999999e+00   6.0448602968905303e-10
  1.4450000000000001e+00   6.0717177333073405e-10
  1.4500000000000000e+00   6.0984065272919468e-10
  1.4550000000000001e+00   6.1249259641842491e-10
  1.4600000000000000e+00   6.1512753745420828e-10
  1.4650000000000001e+00   6.1774541398554705e-10
  1.4700000000000000e+00   6.2034616987615073e-10
  1.4750000000000001e+00   6.2292975537734458e-10
  1.4800000000000000e+00   6.2549612785363122e-10
  1.4850000000000001e+00   6.2804525256203122e-10
  1.4900000000000000e+00   6.3057710348618455e-10
  1.4950000000000001e+00   6.3309166422600628e-10
  1.5000000000000000e+00   6.3558892894348735e-10
  1.5050000000000001e+00   6.3806890336500817e-10
  1.5100000000000000e+00   6.4053160584026224e-10
  1.5150000000000001e+00   6.4297706845755565e-10
  1.5200000000000000e+00   6.4540533821493594e-10
  1.5250000000000001e+00   6.4781647824622322e-10
  1.5300000000000000e+00   6.5021056910057646e-10
  1.5350000000000001e+00   6.5258771007380617e-10
  1.5400000000000000e+00   6.5494802058911572e-10
  1.5449999999999999e+00   6.5729164162445935e-10
  1.5500000000000000e+00   6.5961873718310706e-10
  1.5549999999999999e+00   6.6192949580342940e-10
  1.5600000000000001e+00   6.6422413210328734e-10
  1.5649999999999999e+00   6.6650288835371855e-10
  1.5700000000000001e+00   6.6876603607600231e-10
  1.5750000000000000e+00   6.7101387765541503e-10
  1.5800000000000001e+00   6.7324674796436665e-10
  1.5850000000000000e+00   6.7546501598681207e-10
  1.5900000000000001e+00   6.7766908643526316e-10
  1.5950000000000000e+00   6.7985940135088932e-10
  1.6000000000000001e+00   6.8203644167672076e-10
  1.6050000000000000e+00   6.8420072879321754e-10
  1.6100000000000001e+00   6.8635282600498152e-10
  1.6150000000000000e+00   6.8849333996690312e-10
  1.6200000000000001e+00   6.9062292203756559e-10
  1.6250000000000000e+00   6.9274226954746066e-10
  1.6300000000000001e+00   6.9485212696930330e-10
  1.6350000000000000e+00   6.9695328697765185e-10
  1.6400000000000001e+00   6.9904659138503286e-10
  1.6450000000000000e+00   7.0113293194191894e-10
  1.6500000000000001e+00   7.0321325098823981e-10
  1.6550000000000000e+00   7.0528854194447659e-10
  1.6600000000000001e+00   7.0735984963103969e-10
  1.6650000000000000e+00   7.0942827040538834e-10
  1.6699999999999999e+00   7.1149495210719382e-10
  1.6750000000000000e+00   7.1356109380298382e-10
  1.6799999999999999e+00   7.1562794532285540e-10
  1.6850000000000001e+00   7.1769680658322095e-10
  1.6899999999999999e+00   7.1976902669099228e-10
  1.6950000000000001e+00   7.2184600282619161e-10
  1.7000000000000000e+00   7.2392917890166676e-10
  1.7050000000000001e+00   7.2602004400026086e-10
  1.7100000000000000e+00   7.2812013059167973e-10
  1.7150000000000001e+00   7.3023101253298484e-10
  1.7200000000000000e+00   7.3235430285853704e-10
  1.7250000000000001e+00   7.3449165136698516e-10
  1.7300000000000000e+00   7.3664474201456216e-10
  1.7350000000000001e+00   7.3881529012568187e-10
  1.7400000000000000e+00   7.4100503943331101e-10
  1.7450000000000001e+00   7.4321575896303271e-10
  1.7500000000000000e+00   7.4544923977597475e-10
  1.7550000000000001e+00   7.4770729158689360e-10
  1.7600000000000000e+00   7.4999173927457791e-10
  1.7650000000000001e+00   7.5230441930252577e-10
  1.7700000000000000e+00   7.5464717606829260e-10
  1.7750000000000001e+00   7.5702185820024508e-10
  1.7800000000000000e+00   7.5943031482061285e-10
  1.7850000000000001e+00   7.6187439179349703e-10
  1.7900000000000000e+00   7.6435592797631121e-10
  1.7949999999999999e+00   7.6687675149255823e-10
  1.8000000000000000e+00   7.6943867604318691e-10
  1.8049999999999999e+00   7.7204349727296846e-10
  1.8100000000000001e+00   7.7469298920726745e-10
  1.8149999999999999e+00   7.7738890077359761e-10
  1.8200000000000001e+00   7.8013295242100874e-10
  1.8250000000000000e+00   7.8292683284915325e-10
  1.8300000000000001e+00   7.8577219585752421e-10
  1.8350000000000000e+00   7.8867065732388044e-10
  1.8400000000000001e+00   7.9162379231961020e-10
  1.8450000000000000e+00   7.9463313236826458e-10
  1.8500000000000001e+00   7.9770016285217183e-10
  1.8550000000000000e+00   8.0082632057072294e-10
  1.8600000000000001e+00   8.0401299145263605e-10
  1.8650000000000000e+00   8.0726150842327367e-10
  1.8700000000000001e+00   8.1057314942704393e-10
  1.8750000000000000e+00   8.1394913560383651e-10
  1.8800000000000001e+00   8.1739062961755906e-10
  1.8850000000000000e+00   8.2089873413402935e-10
  1.8900000000000001e+00   8.2447449044479000e-10
  1.8950000000000000e+00   8.2811887723281006e-10
  1.9000000000000001e+00   8.3183280947561879e-10
  1.9050000000000000e+00   8.3561713748103107e-10
  1.9100000000000001e+00   8.3947264605038661e-10
  1.9150000000000000e+00   8.4340005376412066e-10
  1.9199999999999999e+00   8.4740001238444421e-10
  1.9250000000000000e+00   8.5147310636992993e-10
  1.9299999999999999e+00   8.5561985249705658e-10
  1.9350000000000001e+00   8.5984069958388877e-10
  1.9399999999999999e+00   8.6413602831146947e-10
  1.9450000000000001e+00   8.6850615113881837e-10
  1.9500000000000000e+00   8.7295131230791333e-10
  1.9550000000000001e+00   8.7747168793548039e-10
  1.9600000000000000e+00   8.8206738618897511e-10
  1.9650000000000001e+00   8.8673844754468134e-10
  1.9700000000000000e+00   8.9148484512645429e-10
  1.9750000000000001e+00   8.9630648512424101e-10
  1.9800000000000000e+00   9.0120320729214142e-10
  1.9850000000000001e+00   9.0617478552637742e-10
