# First column is time, second column is the perturbation of detonation velocity.
  0.0000000000000000e+00   1.0000000000000000e-10
  5.0000000000000001e-03   1.0022862508178859e-10
  1.0000000000000000e-02   1.0045634184456835e-10
  1.4999999999999999e-02   1.0068706996390383e-10
  2.0000000000000000e-02   1.0092134326731114e-10
  2.5000000000000001e-02   1.0115893289778007e-10
  2.9999999999999999e-02   1.0139960141188696e-10
  3.5000000000000003e-02   1.0164324326890227e-10
  4.0000000000000001e-02   1.0188987118804508e-10
  4.4999999999999998e-02   1.0213949803436657e-10
  5.0000000000000003e-02   1.0239215566957231e-10
  5.5000000000000000e-02   1.0264785588976711e-10
  5.9999999999999998e-02   1.0290661305692639e-10
  6.5000000000000002e-02   1.0316843658933789e-10
  7.0000000000000007e-02   1.0343333389671759e-10
  7.4999999999999997e-02   1.0370131264170991e-10
  8.0000000000000002e-02   1.0397237660222942e-10
  8.5000000000000006e-02   1.0424652956144153e-10
  8.9999999999999997e-02   1.0452377184779398e-10
  9.5000000000000001e-02   1.0480410248638829e-10
  1.0000000000000001e-01   1.0508751780593695e-10
  1.0500000000000000e-01   1.0537401183747983e-10
  1.1000000000000000e-01   1.0566357617076785e-10
  1.1500000000000000e-01   1.0595619959182569e-10
  1.2000000000000000e-01   1.0625186827505601e-10
  1.2500000000000000e-01   1.0655056534992148e-10
  1.3000000000000000e-01   1.0685227099656052e-10
  1.3500000000000001e-01   1.0715696216002049e-10
  1.4000000000000001e-01   1.0746461248723791e-10
  1.4499999999999999e-01   1.0777519216078754e-10
  1.4999999999999999e-01   1.0808866774841159e-10
  1.5500000000000000e-01   1.0840500208004203e-10
  1.6000000000000000e-01   1.0872415407681709e-10
  1.6500000000000001e-01   1.0904607862628606e-10
  1.7000000000000001e-01   1.0937072641993890e-10
  1.7500000000000002e-01   1.0969804381614370e-10
  1.7999999999999999e-01   1.1002797269000298e-10
  1.8500000000000000e-01   1.1036045028979782e-10
  1.9000000000000000e-01   1.1069540909551033e-10
  1.9500000000000001e-01   1.1103277667696468e-10
  2.0000000000000001e-01   1.1137247555895543e-10
  2.0500000000000002e-01   1.1171442308689072e-10
  2.0999999999999999e-01   1.1205853129973477e-10
  2.1500000000000000e-01   1.1240470680684234e-10
  2.2000000000000000e-01   1.1275285067197504e-10
  2.2500000000000001e-01   1.1310285830433310e-10
  2.3000000000000001e-01   1.1345461935764734e-10
  2.3500000000000001e-01   1.1380801763865379e-10
  2.3999999999999999e-01   1.1416293102537923e-10
  2.4500000000000000e-01   1.1451923139677777e-10
  2.5000000000000000e-01   1.1487678457432511e-10
  2.5500000000000000e-01   1.1523545027688682e-10
  2.6000000000000001e-01   1.1559508208976560e-10
  2.6500000000000001e-01   1.1595552744903086e-10
  2.7000000000000002e-01   1.1631662764218835e-10
  2.7500000000000002e-01   1.1667821782618903e-10
  2.8000000000000003e-01   1.1704012706384019e-10
  2.8500000000000003e-01   1.1740217837956457e-10
  2.8999999999999998e-01   1.1776418883548729e-10
  2.9499999999999998e-01   1.1812596962873179e-10
  2.9999999999999999e-01   1.1848732621077647e-10
  3.0499999999999999e-01   1.1884805842964111e-10
  3.1000000000000000e-01   1.1920796069559707e-10
  3.1500000000000000e-01   1.1956682217100488e-10
  3.2000000000000001e-01   1.1992442698477997e-10
  3.2500000000000001e-01   1.2028055447187564e-10
  3.3000000000000002e-01   1.2063497943805620e-10
  3.3500000000000002e-01   1.2098747245009190e-10
  3.4000000000000002e-01   1.2133780015137497e-10
  3.4500000000000003e-01   1.2168572560280539e-10
  3.5000000000000003e-01   1.2203100864863479e-10
  3.5499999999999998e-01   1.2237340630679974e-10
  3.5999999999999999e-01   1.2271267318310472e-10
  3.6499999999999999e-01   1.2304856190844133e-10
  3.7000000000000000e-01   1.2338082359806351e-10
  3.7500000000000000e-01   1.2370920833175778e-10
  3.8000000000000000e-01   1.2403346565357361e-10
  3.8500000000000001e-01   1.2435334508961303e-10
  3.9000000000000001e-01   1.2466859668221141e-10
  3.9500000000000002e-01   1.2497897153867428e-10
  4.0000000000000002e-01   1.2528422239259651e-10
  4.0500000000000003e-01   1.2558410417563783e-10
  4.1000000000000003e-01   1.2587837459750514e-10
  4.1500000000000004e-01   1.2616679473177576e-10
  4.1999999999999998e-01   1.2644912960509476e-10
  4.2499999999999999e-01   1.2672514878719527e-10
  4.2999999999999999e-01   1.2699462697912890e-10
  4.3500000000000000e-01   1.2725734459704092e-10
  4.4000000000000000e-01   1.2751308834880504e-10
  4.4500000000000001e-01   1.2776165180082184e-10
  4.5000000000000001e-01   1.2800283593230018e-10
  4.5500000000000002e-01   1.2823644967438404e-10
  4.6000000000000002e-01   1.2846231043153352e-10
  4.6500000000000002e-01   1.2868024458265615e-10
  4.7000000000000003e-01   1.2889008795958145e-10
  4.7500000000000003e-01   1.2909168630058122e-10
  4.7999999999999998e-01   1.2928489567678528e-10
  4.8499999999999999e-01   1.2946958288948853e-10
  4.8999999999999999e-01   1.2964562583650766e-10
  4.9500000000000000e-01   1.2981291384593955e-10
  5.0000000000000000e-01   1.2997134797585467e-10
  5.0500000000000000e-01   1.3012084127866231e-10
  5.1000000000000001e-01   1.3026131902910731e-10
  5.1500000000000001e-01   1.3039271891505289e-10
  5.2000000000000002e-01   1.3051499119043736e-10
  5.2500000000000002e-01   1.3062809879001548e-10
  5.3000000000000003e-01   1.3073201740569801e-10
  5.3500000000000003e-01   1.3082673552453659e-10
  5.4000000000000004e-01   1.3091225442860571e-10
  5.4500000000000004e-01   1.3098858815723467e-10
  5.5000000000000004e-01   1.3105576343225011e-10
  5.5500000000000005e-01   1.3111381954706579e-10
  5.6000000000000005e-01   1.3116280822063480e-10
  5.6500000000000006e-01   1.3120279341745332e-10
  5.7000000000000006e-01   1.3123385113493611e-10
  5.7500000000000007e-01   1.3125606915963867e-10
  5.7999999999999996e-01   1.3126954679390796e-10
  5.8499999999999996e-01   1.3127439455466244e-10
  5.8999999999999997e-01   1.3127073384608056e-10
  5.9499999999999997e-01   1.3125869660806072e-10
  5.9999999999999998e-01   1.3123842494237200e-10
  6.0499999999999998e-01   1.3121007071846231e-10
  6.0999999999999999e-01   1.3117379516091734e-10
  6.1499999999999999e-01   1.3112976842058144e-10
  6.2000000000000000e-01   1.3107816913135736e-10
  6.2500000000000000e-01   1.3101918395468260e-10
  6.3000000000000000e-01   1.3095300711366913e-10
  6.3500000000000001e-01   1.3087983991885273e-10
  6.4000000000000001e-01   1.3079989028745269e-10
  6.4500000000000002e-01   1.3071337225800114e-10
  6.5000000000000002e-01   1.3062050550212431e-10
  6.5500000000000003e-01   1.3052151483520660e-10
  6.6000000000000003e-01   1.3041662972757808e-10
  6.6500000000000004e-01   1.3030608381780031e-10
  6.7000000000000004e-01   1.3019011442953193e-10
  6.7500000000000004e-01   1.3006896209337231e-10
  6.8000000000000005e-01   1.2994287007498941e-10
  6.8500000000000005e-01   1.2981208391074709e-10
  6.9000000000000006e-01   1.2967685095195811e-10
  6.9500000000000006e-01   1.2953741991878517e-10
  7.0000000000000007e-01   1.2939404046473508e-10
  7.0499999999999996e-01   1.2924696275258317e-10
  7.0999999999999996e-01   1.2909643704249072e-10
  7.1499999999999997e-01   1.2894271329297329e-10
  7.1999999999999997e-01   1.2878604077530940e-10
  7.2499999999999998e-01   1.2862666770188389e-10
  7.2999999999999998e-01   1.2846484086888035e-10
  7.3499999999999999e-01   1.2830080531367080e-10
  7.3999999999999999e-01   1.2813480398716803e-10
  7.4500000000000000e-01   1.2796707744133641e-10
  7.5000000000000000e-01   1.2779786353200289e-10
  7.5500000000000000e-01   1.2762739713703353e-10
  7.6000000000000001e-01   1.2745590988989352e-10
  7.6500000000000001e-01   1.2728362992855136e-10
  7.7000000000000002e-01   1.2711078165964109e-10
  7.7500000000000002e-01   1.2693758553774430e-10
  7.8000000000000003e-01   1.2676425785962181e-10
  7.8500000000000003e-01   1.2659101057317687e-10
  7.9000000000000004e-01   1.2641805110090376e-10
  7.9500000000000004e-01   1.2624558217754377e-10
  8.0000000000000004e-01   1.2607380170164179e-10
  8.0500000000000005e-01   1.2590290260067016e-10
  8.1000000000000005e-01   1.2573307270937366e-10
  8.1500000000000006e-01   1.2556449466096068e-10
  8.2000000000000006e-01   1.2539734579076069e-10
  8.2500000000000007e-01   1.2523179805194374e-10
  8.3000000000000007e-01   1.2506801794290067e-10
  8.3499999999999996e-01   1.2490616644586279e-10
  8.3999999999999997e-01   1.2474639897634297e-10
  8.4499999999999997e-01   1.2458886534297141e-10
  8.4999999999999998e-01   1.2443370971729475e-10
  8.5499999999999998e-01   1.2428107061311717e-10
  8.5999999999999999e-01   1.2413108087495256e-10
  8.6499999999999999e-01   1.2398386767516427e-10
  8.7000000000000000e-01   1.2383955251937043e-10
  8.7500000000000000e-01   1.2369825125970550e-10
  8.8000000000000000e-01   1.2356007411552235e-10
  8.8500000000000001e-01   1.2342512570113631e-10
  8.9000000000000001e-01   1.2329350506021487e-10
  8.9500000000000002e-01   1.2316530570643039e-10
  9.0000000000000002e-01   1.2304061566999365e-10
  9.0500000000000003e-01   1.2291951754970634e-10
  9.1000000000000003e-01   1.2280208857017003e-10
  9.1500000000000004e-01   1.2268840064381002e-10
  9.2000000000000004e-01   1.2257852043737165e-10
  9.2500000000000004e-01   1.2247250944256961e-10
  9.3000000000000005e-01   1.2237042405056907e-10
  9.3500000000000005e-01   1.2227231563000273e-10
  9.4000000000000006e-01   1.2217823060822359e-10
  9.4500000000000006e-01   1.2208821055551773e-10
  9.5000000000000007e-01   1.2200229227200588e-10
  9.5500000000000007e-01   1.2192050787697150e-10
  9.5999999999999996e-01   1.2184288490037235e-10
  9.6499999999999997e-01   1.2176944637629337e-10
  9.6999999999999997e-01   1.2170021093811790e-10
  9.7499999999999998e-01   1.2163519291519622e-10
  9.7999999999999998e-01   1.2157440243081220e-10
  9.8499999999999999e-01   1.2151784550124449e-10
  9.8999999999999999e-01   1.2146552413574121e-10
  9.9500000000000000e-01   1.2141743643722815e-10
  1.0000000000000000e+00   1.2137357670358524e-10
  1.0050000000000001e+00   1.2133393552933026e-10
  1.0100000000000000e+00   1.2129849990756365e-10
  1.0150000000000001e+00   1.2126725333202657e-10
  1.0200000000000000e+00   1.2124017589914764e-10
  1.0249999999999999e+00   1.2121724440994387e-10
  1.0300000000000000e+00   1.2119843247166521e-10
  1.0349999999999999e+00   1.2118371059906777e-10
  1.0400000000000000e+00   1.2117304631521402e-10
  1.0449999999999999e+00   1.2116640425170341e-10
  1.0500000000000000e+00   1.2116374624824055e-10
  1.0549999999999999e+00   1.2116503145146307e-10
  1.0600000000000001e+00   1.2117021641294115e-10
  1.0649999999999999e+00   1.2117925518628697e-10
  1.0700000000000001e+00   1.2119209942329859e-10
  1.0750000000000000e+00   1.2120869846908107e-10
  1.0800000000000001e+00   1.2122899945608578e-10
  1.0850000000000000e+00   1.2125294739701818e-10
  1.0900000000000001e+00   1.2128048527656040e-10
  1.0950000000000000e+00   1.2131155414187326e-10
  1.1000000000000001e+00   1.2134609319182925e-10
  1.1050000000000000e+00   1.2138403986495010e-10
  1.1100000000000001e+00   1.2142532992600683e-10
  1.1150000000000000e+00   1.2146989755126160e-10
  1.1200000000000001e+00   1.2151767541232265e-10
  1.1250000000000000e+00   1.2156859475858700e-10
  1.1300000000000001e+00   1.2162258549825630e-10
  1.1350000000000000e+00   1.2167957627790650e-10
  1.1400000000000001e+00   1.2173949456059585e-10
  1.1450000000000000e+00   1.2180226670250083e-10
  1.1500000000000001e+00   1.2186781802807007e-10
  1.1550000000000000e+00   1.2193607290368727e-10
  1.1599999999999999e+00   1.2200695480983959e-10
  1.1650000000000000e+00   1.2208038641178453e-10
  1.1699999999999999e+00   1.2215628962871772e-10
  1.1750000000000000e+00   1.2223458570143562e-10
  1.1799999999999999e+00   1.2231519525849851e-10
  1.1850000000000001e+00   1.2239803838089432e-10
  1.1899999999999999e+00   1.2248303466520798e-10
  1.1950000000000001e+00   1.2257010328529750e-10
  1.2000000000000000e+00   1.2265916305249069e-10
  1.2050000000000001e+00   1.2275013247429969e-10
  1.2100000000000000e+00   1.2284292981166980e-10
  1.2150000000000001e+00   1.2293747313476786e-10
  1.2200000000000000e+00   1.2303368037731802e-10
  1.2250000000000001e+00   1.2313146938949932e-10
  1.2300000000000000e+00   1.2323075798941675e-10
  1.2350000000000001e+00   1.2333146401315144e-10
  1.2400000000000000e+00   1.2343350536340997e-10
  1.2450000000000001e+00   1.2353680005678296e-10
  1.2500000000000000e+00   1.2364126626962267e-10
  1.2550000000000001e+00   1.2374682238256186e-10
  1.2600000000000000e+00   1.2385338702368072e-10
  1.2650000000000001e+00   1.2396087911034142e-10
  1.2700000000000000e+00   1.2406921788970254e-10
  1.2750000000000001e+00   1.2417832297793069e-10
  1.2800000000000000e+00   1.2428811439812676e-10
  1.2849999999999999e+00   1.2439851261697716e-10
  1.2900000000000000e+00   1.2450943858015392e-10
  1.2949999999999999e+00   1.2462081374647335e-10
  1.3000000000000000e+00   1.2473256012083648e-10
  1.3049999999999999e+00   1.2484460028596125e-10
  1.3100000000000001e+00   1.2495685743293210e-10
  1.3149999999999999e+00   1.2506925539057463e-10
  1.3200000000000001e+00   1.2518171865368103e-10
  1.3250000000000000e+00   1.2529417241010032e-10
  1.3300000000000001e+00   1.2540654256670970e-10
  1.3350000000000000e+00   1.2551875577428839e-10
  1.3400000000000001e+00   1.2563073945130969e-10
  1.3450000000000000e+00   1.2574242180666877e-10
  1.3500000000000001e+00   1.2585373186136514e-10
  1.3550000000000000e+00   1.2596459946916084e-10
  1.3600000000000001e+00   1.2607495533622527e-10
  1.3650000000000000e+00   1.2618473103979284e-10
  1.3700000000000001e+00   1.2629385904584811e-10
  1.3750000000000000e+00   1.2640227272585555e-10
  1.3800000000000001e+00   1.2650990637255483e-10
  1.3850000000000000e+00   1.2661669521484099e-10
  1.3900000000000001e+00   1.2672257543174327e-10
  1.3950000000000000e+00   1.2682748416552681e-10
  1.4000000000000001e+00   1.2693135953393310e-10
  1.4050000000000000e+00   1.2703414064157487e-10
  1.4099999999999999e+00   1.2713576759051238e-10
  1.4150000000000000e+00   1.2723618149001970e-10
  1.4199999999999999e+00   1.2733532446556789e-10
  1.4250000000000000e+00   1.2743313966703741e-10
  1.4299999999999999e+00   1.2752957127618337e-10
  1.4350000000000001e+00   1.2762456451336943e-10
  1.4399999999999999e+00   1.2771806564358903e-10
  1.4450000000000001e+00   1.2781002198179277e-10
  1.4500000000000000e+00   1.2790038189754388e-10
  1.4550000000000001e+00   1.2798909481901199e-10
  1.4600000000000000e+00   1.2807611123633232e-10
  1.4650000000000001e+00   1.2816138270434500e-10
  1.4700000000000000e+00   1.2824486184473054e-10
  1.4750000000000001e+00   1.2832650234756423e-10
  1.4800000000000000e+00   1.2840625897230443e-10
  1.4850000000000001e+00   1.2848408754823431e-10
  1.4900000000000000e+00   1.2855994497437248e-10
  1.4950000000000001e+00   1.2863378921887391e-10
  1.5000000000000000e+00   1.2870557931793788e-10
  1.5050000000000001e+00   1.2877527537423516e-10
  1.5100000000000000e+00   1.2884283855488251e-10
  1.5150000000000001e+00   1.2890823108897037e-10
  1.5200000000000000e+00   1.2897141626466808e-10
  1.5250000000000001e+00   1.2903235842592119e-10
  1.5300000000000000e+00   1.2909102296875710e-10
  1.5350000000000001e+00   1.2914737633721532e-10
  1.5400000000000000e+00   1.2920138601892206e-10
  1.5449999999999999e+00   1.2925302054031728e-10
  1.5500000000000000e+00   1.2930224946155981e-10
  1.5549999999999999e+00   1.2934904337111910e-10
  1.5600000000000001e+00   1.2939337388007032e-10
  1.5649999999999999e+00   1.2943521361610918e-10
  1.5700000000000001e+00   1.2947453621730058e-10
  1.5750000000000000e+00   1.2951131632557427e-10
  1.5800000000000001e+00   1.2954552957998382e-10
  1.5850000000000000e+00   1.2957715260973945e-10
  1.5900000000000001e+00   1.2960616302703107e-10
  1.5950000000000000e+00   1.2963253941965496e-10
  1.6000000000000001e+00   1.2965626134345214e-10
  1.6050000000000000e+00   1.2967730931457656e-10
  1.6100000000000001e+00   1.2969566480160127e-10
  1.6150000000000000e+00   1.2971131021747737e-10
  1.6200000000000001e+00   1.2972422891135172e-10
  1.6250000000000000e+00   1.2973440516026167e-10
  1.6300000000000001e+00   1.2974182416070959e-10
  1.6350000000000000e+00   1.2974647202013443e-10
  1.6400000000000001e+00   1.2974833574828350e-10
  1.6450000000000000e+00   1.2974740324849785e-10
  1.6500000000000001e+00   1.2974366330891994e-10
  1.6550000000000000e+00   1.2973710559363026e-10
  1.6600000000000001e+00   1.2972772063372070e-10
  1.6650000000000000e+00   1.2971549981831488e-10
  1.6699999999999999e+00   1.2970043538554074e-10
  1.6750000000000000e+00   1.2968252041346141e-10
  1.6799999999999999e+00   1.2966174881097327e-10
  1.6850000000000001e+00   1.2963811530867403e-10
  1.6899999999999999e+00   1.2961161544970957e-10
  1.6950000000000001e+00   1.2958224558060115e-10
  1.7000000000000000e+00   1.2955000284206058e-10
  1.7050000000000001e+00   1.2951488515979769e-10
  1.7100000000000000e+00   1.2947689123532022e-10
  1.7150000000000001e+00   1.2943602053673418e-10
  1.7200000000000000e+00   1.2939227328954562e-10
  1.7250000000000001e+00   1.2934565046746738e-10
  1.7300000000000000e+00   1.2929615378323006e-10
  1.7350000000000001e+00   1.2924378567940546e-10
  1.7400000000000000e+00   1.2918854931923790e-10
  1.7450000000000001e+00   1.2913044857748815e-10
  1.7500000000000000e+00   1.2906948803128996e-10
  1.7550000000000001e+00   1.2900567295101982e-10
  1.7600000000000000e+00   1.2893900929118049e-10
  1.7650000000000001e+00   1.2886950368129787e-10
  1.7700000000000000e+00   1.2879716341683278e-10
  1.7750000000000001e+00   1.2872199645010292e-10
  1.7800000000000000e+00   1.2864401138121906e-10
  1.7850000000000001e+00   1.2856321744903213e-10
  1.7900000000000000e+00   1.2847962452208807e-10
  1.7949999999999999e+00   1.2839324308959449e-10
  1.8000000000000000e+00   1.2830408425238931e-10
  1.8049999999999999e+00   1.2821215971391769e-10
  1.8100000000000001e+00   1.2811748177120960e-10
  1.8149999999999999e+00   1.2802006330585658e-10
  1.8200000000000001e+00   1.2791991777499007e-10
  1.8250000000000000e+00   1.2781705920225077e-10
  1.8300000000000001e+00   1.2771150216875210e-10
  1.8350000000000000e+00   1.2760326180403408e-10
  1.8400000000000001e+00   1.2749235377700298e-10
  1.8450000000000000e+00   1.2737879428685594e-10
  1.8500000000000001e+00   1.2726260005398507e-10
  1.8550000000000000e+00   1.2714378831086182e-10
  1.8600000000000001e+00   1.2702237679289247e-10
  1.8650000000000000e+00   1.2689838372924974e-10
  1.8700000000000001e+00   1.2677182783366878e-10
  1.8750000000000000e+00   1.2664272829521201e-10
  1.8800000000000001e+00   1.2651110476899451e-10
  1.8850000000000000e+00   1.2637697736686966e-10
  1.8900000000000001e+00   1.2624036664807046e-10
  1.8950000000000000e+00   1.2610129360980597e-10
  1.9000000000000001e+00   1.2595977967780692e-10
  1.9050000000000000e+00   1.2581584669682013e-10
  1.9100000000000001e+00   1.2566951692104961e-10
  1.9150000000000000e+00   1.2552081300453690e-10
  1.9199999999999999e+00   1.2536975799148775e-10
  1.9250000000000000e+00   1.2521637530653172e-10
  1.9299999999999999e+00   1.2506068874492098e-10
  1.9350000000000001e+00   1.2490272246266348e-10
  1.9399999999999999e+00   1.2474250096658727e-10
  1.9450000000000001e+00   1.2458004910433776e-10
  1.9500000000000000e+00   1.2441539205430249e-10
  1.9550000000000001e+00   1.2424855531546692e-10
  1.9600000000000000e+00   1.2407956469719480e-10
  1.9650000000000001e+00   1.2390844630893827e-10
  1.9700000000000000e+00   1.2373522654987056e-10
  1.9750000000000001e+00   1.2355993209844806e-10
  1.9800000000000000e+00   1.2338258990189467e-10
  1.9850000000000001e+00   1.2320322716561454e-10
