# First column is time, second column is the perturbation of detonation velocity.
  0.0000000000000000e+00   1.0000000000000000e-10
  5.0000000000000001e-03   1.0025919950499430e-10
  1.0000000000000000e-02   1.0043182047054241e-10
  1.4999999999999999e-02   1.0062920614870190e-10
  2.0000000000000000e-02   1.0087615627889542e-10
  2.5000000000000001e-02   1.0115642977355725e-10
  2.9999999999999999e-02   1.0144106494569818e-10
  3.5000000000000003e-02   1.0170690404320474e-10
  4.0000000000000001e-02   1.0194612166038094e-10
  4.4999999999999998e-02   1.0216685636913060e-10
  5.0000000000000003e-02   1.0238686397690167e-10
  5.5000000000000000e-02   1.0262404956449201e-10
  5.9999999999999998e-02   1.0288832556526912e-10
  6.5000000000000002e-02   1.0317808078392929e-10
  7.0000000000000007e-02   1.0348218178033727e-10
  7.4999999999999997e-02   1.0378595252565108e-10
  8.0000000000000002e-02   1.0407804975039426e-10
  8.5000000000000006e-02   1.0435512219779756e-10
  8.9999999999999997e-02   1.0462246099660099e-10
  9.5000000000000001e-02   1.0489079708113440e-10
  1.0000000000000001e-01   1.0517106560690929e-10
  1.0500000000000000e-01   1.0546964486648013e-10
  1.1000000000000000e-01   1.0578609631659416e-10
  1.1500000000000000e-01   1.0611412041155166e-10
  1.2000000000000000e-01   1.0644496252770078e-10
  1.2500000000000000e-01   1.0677151806027875e-10
  1.3000000000000000e-01   1.0709127131199094e-10
  1.3500000000000001e-01   1.0740691412776043e-10
  1.4000000000000001e-01   1.0772462729969142e-10
  1.4499999999999999e-01   1.0805102845992789e-10
  1.4999999999999999e-01   1.0839026215216395e-10
  1.5500000000000000e-01   1.0874248499559814e-10
  1.6000000000000000e-01   1.0910425410962148e-10
  1.6500000000000001e-01   1.0947044179928870e-10
  1.7000000000000001e-01   1.0983667513207720e-10
  1.7500000000000002e-01   1.1020117928420952e-10
  1.7999999999999999e-01   1.1056528564949402e-10
  1.8500000000000000e-01   1.1093252841688486e-10
  1.9000000000000000e-01   1.1130687712161210e-10
  1.9500000000000001e-01   1.1169096981173511e-10
  2.0000000000000001e-01   1.1208511706944209e-10
  2.0500000000000002e-01   1.1248742716559652e-10
  2.0999999999999999e-01   1.1289487567169828e-10
  2.1500000000000000e-01   1.1330475031698509e-10
  2.2000000000000000e-01   1.1371580027106565e-10
  2.2500000000000001e-01   1.1412862097095697e-10
  2.3000000000000001e-01   1.1454518998864129e-10
  2.3500000000000001e-01   1.1496784878880174e-10
  2.3999999999999999e-01   1.1539823470128576e-10
  2.4500000000000000e-01   1.1583663419820676e-10
  2.5000000000000000e-01   1.1628199354718175e-10
  2.5500000000000000e-01   1.1673251055864018e-10
  2.6000000000000001e-01   1.1718648606998960e-10
  2.6500000000000001e-01   1.1764303554160661e-10
  2.7000000000000002e-01   1.1810236563784502e-10
  2.7500000000000002e-01   1.1856554246273472e-10
  2.8000000000000003e-01   1.1903390773373959e-10
  2.8500000000000003e-01   1.1950843564230160e-10
  2.8999999999999998e-01   1.1998931711171747e-10
  2.9499999999999998e-01   1.2047592777473637e-10
  2.9999999999999999e-01   1.2096715164969995e-10
  3.0499999999999999e-01   1.2146188044795029e-10
  3.1000000000000000e-01   1.2195945147326390e-10
  3.1500000000000000e-01   1.2245983966211207e-10
  3.2000000000000001e-01   1.2296354660016399e-10
  3.2500000000000001e-01   1.2347126770150931e-10
  3.3000000000000002e-01   1.2398350662475785e-10
  3.3500000000000002e-01   1.2450031060048183e-10
  3.4000000000000002e-01   1.2502122872267051e-10
  3.4500000000000003e-01   1.2554548694249720e-10
  3.5000000000000003e-01   1.2607227971836171e-10
  3.5499999999999998e-01   1.2660103833032726e-10
  3.5999999999999999e-01   1.2713156131264314e-10
  3.6499999999999999e-01   1.2766396507816995e-10
  3.7000000000000000e-01   1.2819849580165327e-10
  3.7500000000000000e-01   1.2873529967878223e-10
  3.8000000000000000e-01   1.2927425628043525e-10
  3.8500000000000001e-01   1.2981494083793657e-10
  3.9000000000000001e-01   1.3035671794186392e-10
  3.9500000000000002e-01   1.3089891160157266e-10
  4.0000000000000002e-01   1.3144096934733055e-10
  4.0500000000000003e-01   1.3198254965270988e-10
  4.1000000000000003e-01   1.3252350312302004e-10
  4.1500000000000004e-01   1.3306376746520804e-10
  4.1999999999999998e-01   1.3360323169757192e-10
  4.2499999999999999e-01   1.3414163245868414e-10
  4.2999999999999999e-01   1.3467852446114543e-10
  4.3500000000000000e-01   1.3521333025511929e-10
  4.4000000000000000e-01   1.3574543934927239e-10
  4.4500000000000001e-01   1.3627430850225623e-10
  4.5000000000000001e-01   1.3679951975784080e-10
  4.5500000000000002e-01   1.3732077597140210e-10
  4.6000000000000002e-01   1.3783784305460823e-10
  4.6500000000000002e-01   1.3835047040887426e-10
  4.7000000000000003e-01   1.3885832711591051e-10
  4.7500000000000003e-01   1.3936098050524279e-10
  4.7999999999999998e-01   1.3985792235410930e-10
  4.8499999999999999e-01   1.4034862664421000e-10
  4.8999999999999999e-01   1.4083261079924263e-10
  4.9500000000000000e-01   1.4130947387312259e-10
  5.0000000000000000e-01   1.4177889810171354e-10
  5.0500000000000000e-01   1.4224061768615087e-10
  5.1000000000000001e-01   1.4269437254116282e-10
  5.1500000000000001e-01   1.4313986936262479e-10
  5.2000000000000002e-01   1.4357676673694373e-10
  5.2500000000000002e-01   1.4400468870277106e-10
  5.3000000000000003e-01   1.4442325827872674e-10
  5.3500000000000003e-01   1.4483213467608453e-10
  5.4000000000000004e-01   1.4523103806558091e-10
  5.4500000000000004e-01   1.4561975293183351e-10
  5.5000000000000004e-01   1.4599811133961476e-10
  5.5500000000000005e-01   1.4636596602602371e-10
  5.6000000000000005e-01   1.4672316656147634e-10
  5.6500000000000006e-01   1.4706954901201832e-10
  5.7000000000000006e-01   1.4740494247988790e-10
  5.7500000000000007e-01   1.4772918813733730e-10
  5.7999999999999996e-01   1.4804216136185439e-10
  5.8499999999999996e-01   1.4834378721231643e-10
  5.8999999999999997e-01   1.4863404341103398e-10
  5.9499999999999997e-01   1.4891295103715957e-10
  5.9999999999999998e-01   1.4918055842872675e-10
  6.0499999999999998e-01   1.4943692610821595e-10
  6.0999999999999999e-01   1.4968211920376124e-10
  6.1499999999999999e-01   1.4991620981938517e-10
  6.2000000000000000e-01   1.5013928715700857e-10
  6.2500000000000000e-01   1.5035147000733372e-10
  6.3000000000000000e-01   1.5055291573583668e-10
  6.3500000000000001e-01   1.5074382201489182e-10
  6.4000000000000001e-01   1.5092442108252749e-10
  6.4500000000000002e-01   1.5109496955090026e-10
  6.5000000000000002e-01   1.5125573836102459e-10
  6.5500000000000003e-01   1.5140700688062642e-10
  6.6000000000000003e-01   1.5154906286759487e-10
  6.6500000000000004e-01   1.5168220724667252e-10
  6.7000000000000004e-01   1.5180676063629453e-10
  6.7500000000000004e-01   1.5192306810949562e-10
  6.8000000000000005e-01   1.5203149980550508e-10
  6.8500000000000005e-01   1.5213244706053659e-10
  6.9000000000000006e-01   1.5222631570262743e-10
  6.9500000000000006e-01   1.5231351920268472e-10
  7.0000000000000007e-01   1.5239447413666850e-10
  7.0499999999999996e-01   1.5246959913532951e-10
  7.0999999999999996e-01   1.5253931684887274e-10
  7.1499999999999997e-01   1.5260405719354993e-10
  7.1999999999999997e-01   1.5266425978253248e-10
  7.2499999999999998e-01   1.5272037403572318e-10
  7.2999999999999998e-01   1.5277285664973882e-10
  7.3499999999999999e-01   1.5282216730782522e-10
  7.3999999999999999e-01   1.5286876419583798e-10
  7.4500000000000000e-01   1.5291310082089993e-10
  7.5000000000000000e-01   1.5295562491632986e-10
  7.5500000000000000e-01   1.5299677924063906e-10
  7.6000000000000001e-01   1.5303700329366246e-10
  7.6500000000000001e-01   1.5307673470032698e-10
  7.7000000000000002e-01   1.5311640931500731e-10
  7.7500000000000002e-01   1.5315645978216743e-10
  7.8000000000000003e-01   1.5319731301273622e-10
  7.8500000000000003e-01   1.5323938748021463e-10
  7.9000000000000004e-01   1.5328309124227967e-10
  7.9500000000000004e-01   1.5332882119996180e-10
  8.0000000000000004e-01   1.5337696353192721e-10
  8.0500000000000005e-01   1.5342789475611514e-10
  8.1000000000000005e-01   1.5348198267674850e-10
  8.1500000000000006e-01   1.5353958662448747e-10
  8.2000000000000006e-01   1.5360105678843892e-10
  8.2500000000000007e-01   1.5366673287411497e-10
  8.3000000000000007e-01   1.5373694260658174e-10
  8.3499999999999996e-01   1.5381200062498862e-10
  8.3999999999999997e-01   1.5389220809981230e-10
  8.4499999999999997e-01   1.5397785306752685e-10
  8.4999999999999998e-01   1.5406921117908898e-10
  8.5499999999999998e-01   1.5416654642454624e-10
  8.5999999999999999e-01   1.5427011146684602e-10
  8.6499999999999999e-01   1.5438014744041867e-10
  8.7000000000000000e-01   1.5449688333083706e-10
  8.7500000000000000e-01   1.5462053523300185e-10
  8.8000000000000000e-01   1.5475130581659578e-10
  8.8500000000000001e-01   1.5488938421169015e-10
  8.9000000000000001e-01   1.5503494633094150e-10
  8.9500000000000002e-01   1.5518815546223885e-10
  9.0000000000000002e-01   1.5534916287505165e-10
  9.0500000000000003e-01   1.5551810821458972e-10
  9.1000000000000003e-01   1.5569511958352978e-10
  9.1500000000000004e-01   1.5588031336637642e-10
  9.2000000000000004e-01   1.5607379396555541e-10
  9.2500000000000004e-01   1.5627565364583566e-10
  9.3000000000000005e-01   1.5648597262207332e-10
  9.3500000000000005e-01   1.5670481941109931e-10
  9.4000000000000006e-01   1.5693225135732311e-10
  9.4500000000000006e-01   1.5716831518146422e-10
  9.5000000000000007e-01   1.5741304741339203e-10
  9.5500000000000007e-01   1.5766647464048505e-10
  9.5999999999999996e-01   1.5792861359507142e-10
  9.6499999999999997e-01   1.5819947117583060e-10
  9.6999999999999997e-01   1.5847904451968550e-10
  9.7499999999999998e-01   1.5876732120866146e-10
  9.7999999999999998e-01   1.5906427963026020e-10
  9.8499999999999999e-01   1.5936988944253932e-10
  9.8999999999999999e-01   1.5968411205583085e-10
  9.9500000000000000e-01   1.6000690104595951e-10
  1.0000000000000000e+00   1.6033820245307918e-10
  1.0050000000000001e+00   1.6067795497479529e-10
  1.0100000000000000e+00   1.6102609010665702e-10
  1.0150000000000001e+00   1.6138253229917244e-10
  1.0200000000000000e+00   1.6174719918433105e-10
  1.0249999999999999e+00   1.6212000188682359e-10
  1.0300000000000000e+00   1.6250084539460036e-10
  1.0349999999999999e+00   1.6288962893813711e-10
  1.0400000000000000e+00   1.6328624632717149e-10
  1.0449999999999999e+00   1.6369058621536453e-10
  1.0500000000000000e+00   1.6410253229547620e-10
  1.0549999999999999e+00   1.6452196345511766e-10
  1.0600000000000001e+00   1.6494875393451392e-10
  1.0649999999999999e+00   1.6538277351981151e-10
  1.0700000000000001e+00   1.6582388778386375e-10
  1.0750000000000000e+00   1.6627195836205015e-10
  1.0800000000000001e+00   1.6672684323449598e-10
  1.0850000000000000e+00   1.6718839698421837e-10
  1.0900000000000001e+00   1.6765647101249816e-10
  1.0950000000000000e+00   1.6813091371153639e-10
  1.1000000000000001e+00   1.6861157061127077e-10
  1.1050000000000000e+00   1.6909828452496357e-10
  1.1100000000000001e+00   1.6959089571444751e-10
  1.1150000000000000e+00   1.7008924208357788e-10
  1.1200000000000001e+00   1.7059315939380089e-10
  1.1250000000000000e+00   1.7110248148542276e-10
  1.1300000000000001e+00   1.7161704048616325e-10
  1.1350000000000000e+00   1.7213666699485525e-10
  1.1400000000000001e+00   1.7266119023904623e-10
  1.1450000000000000e+00   1.7319043821549702e-10
  1.1500000000000001e+00   1.7372423782775646e-10
  1.1550000000000000e+00   1.7426241503337987e-10
  1.1599999999999999e+00   1.7480479500639707e-10
  1.1650000000000000e+00   1.7535120231192162e-10
  1.1699999999999999e+00   1.7590146108331215e-10
  1.1750000000000000e+00   1.7645539519062601e-10
  1.1799999999999999e+00   1.7701282839244746e-10
  1.1850000000000001e+00   1.7757358446952476e-10
  1.1899999999999999e+00   1.7813748734491653e-10
  1.1950000000000001e+00   1.7870436119881523e-10
  1.2000000000000000e+00   1.7927403058568025e-10
  1.2050000000000001e+00   1.7984632055746080e-10
  1.2100000000000000e+00   1.8042105679156498e-10
  1.2150000000000001e+00   1.8099806571823212e-10
  1.2200000000000000e+00   1.8157717464071419e-10
  1.2250000000000001e+00   1.8215821184344268e-10
  1.2300000000000000e+00   1.8274100668705379e-10
  1.2350000000000001e+00   1.8332538969296590e-10
  1.2400000000000000e+00   1.8391119262248157e-10
  1.2450000000000001e+00   1.8449824855531026e-10
  1.2500000000000000e+00   1.8508639197027911e-10
  1.2550000000000001e+00   1.8567545882797538e-10
  1.2600000000000000e+00   1.8626528665257786e-10
  1.2650000000000001e+00   1.8685571460920788e-10
  1.2700000000000000e+00   1.8744658357400576e-10
  1.2750000000000001e+00   1.8803773619624368e-10
  1.2800000000000000e+00   1.8862901695405789e-10
  1.2849999999999999e+00   1.8922027220682270e-10
  1.2900000000000000e+00   1.8981135024724439e-10
  1.2949999999999999e+00   1.9040210135505192e-10
  1.3000000000000000e+00   1.9099237785234851e-10
  1.3049999999999999e+00   1.9158203415912171e-10
  1.3100000000000001e+00   1.9217092684672133e-10
  1.3149999999999999e+00   1.9275891468751266e-10
  1.3200000000000001e+00   1.9334585870007967e-10
  1.3250000000000000e+00   1.9393162219069485e-10
  1.3300000000000001e+00   1.9451607079266674e-10
  1.3350000000000000e+00   1.9509907250527398e-10
  1.3400000000000001e+00   1.9568049773332866e-10
  1.3450000000000000e+00   1.9626021932734215e-10
  1.3500000000000001e+00   1.9683811262330524e-10
  1.3550000000000000e+00   1.9741405548062749e-10
  1.3600000000000001e+00   1.9798792831696511e-10
  1.3650000000000000e+00   1.9855961413933972e-10
  1.3700000000000001e+00   1.9912899857176455e-10
  1.3750000000000000e+00   1.9969596988018049e-10
  1.3800000000000001e+00   2.0026041899562913e-10
  1.3850000000000000e+00   2.0082223953625338e-10
  1.3900000000000001e+00   2.0138132782811929e-10
  1.3950000000000000e+00   2.0193758292428732e-10
  1.4000000000000001e+00   2.0249090662127595e-10
  1.4050000000000000e+00   2.0304120347215824e-10
  1.4099999999999999e+00   2.0358838079593331e-10
  1.4150000000000000e+00   2.0413234868331907e-10
  1.4199999999999999e+00   2.0467301999949817e-10
  1.4250000000000000e+00   2.0521031038446912e-10
  1.4299999999999999e+00   2.0574413825148716e-10
  1.4350000000000001e+00   2.0627442478374740e-10
  1.4399999999999999e+00   2.0680109392912181e-10
  1.4450000000000001e+00   2.0732407239257910e-10
  1.4500000000000000e+00   2.0784328962595097e-10
  1.4550000000000001e+00   2.0835867781493048e-10
  1.4600000000000000e+00   2.0887017186348141e-10
  1.4650000000000001e+00   2.0937770937606835e-10
  1.4700000000000000e+00   2.0988123063819332e-10
  1.4750000000000001e+00   2.1038067859562807e-10
  1.4800000000000000e+00   2.1087599883252599e-10
  1.4850000000000001e+00   2.1136713954837494e-10
  1.4900000000000000e+00   2.1185405153361999e-10
  1.4950000000000001e+00   2.1233668814377416e-10
  1.5000000000000000e+00   2.1281500527194690e-10
  1.5050000000000001e+00   2.1328896131987693e-10
  1.5100000000000000e+00   2.1375851716768681e-10
  1.5150000000000001e+00   2.1422363614261981e-10
  1.5200000000000000e+00   2.1468428398696363e-10
  1.5250000000000001e+00   2.1514042882523675e-10
  1.5300000000000000e+00   2.1559204113057900e-10
  1.5350000000000001e+00   2.1603909369019648e-10
  1.5400000000000000e+00   2.1648156156969901e-10
  1.5449999999999999e+00   2.1691942207622943e-10
  1.5500000000000000e+00   2.1735265472038143e-10
  1.5549999999999999e+00   2.1778124117698835e-10
  1.5600000000000001e+00   2.1820516524490554e-10
  1.5649999999999999e+00   2.1862441280588868e-10
  1.5700000000000001e+00   2.1903897178261019e-10
  1.5750000000000000e+00   2.1944883209578183e-10
  1.5800000000000001e+00   2.1985398562031312e-10
  1.5850000000000000e+00   2.2025442614042784e-10
  1.5900000000000001e+00   2.2065014930371268e-10
  1.5950000000000000e+00   2.2104115257413563e-10
  1.6000000000000001e+00   2.2142743518413902e-10
  1.6050000000000000e+00   2.2180899808594552e-10
  1.6100000000000001e+00   2.2218584390222005e-10
  1.6150000000000000e+00   2.2255797687619709e-10
  1.6200000000000001e+00   2.2292540282135330e-10
  1.6250000000000000e+00   2.2328812907067489e-10
  1.6300000000000001e+00   2.2364616442557143e-10
  1.6350000000000000e+00   2.2399951910451338e-10
  1.6400000000000001e+00   2.2434820469150749e-10
  1.6450000000000000e+00   2.2469223408455995e-10
  1.6500000000000001e+00   2.2503162144429778e-10
  1.6550000000000000e+00   2.2536638214291319e-10
  1.6600000000000001e+00   2.2569653271357415e-10
  1.6650000000000000e+00   2.2602209080041415e-10
  1.6699999999999999e+00   2.2634307510918811e-10
  1.6750000000000000e+00   2.2665950535867326e-10
  1.6799999999999999e+00   2.2697140223289207e-10
  1.6850000000000001e+00   2.2727878733425205e-10
  1.6899999999999999e+00   2.2758168313770401e-10
  1.6950000000000001e+00   2.2788011294602690e-10
  1.7000000000000000e+00   2.2817410084633456e-10
  1.7050000000000001e+00   2.2846367166788102e-10
  1.7100000000000000e+00   2.2874885094121359e-10
  1.7150000000000001e+00   2.2902966485870392e-10
  1.7200000000000000e+00   2.2930614023647065e-10
  1.7250000000000001e+00   2.2957830447770937e-10
  1.7300000000000000e+00   2.2984618553744455e-10
  1.7350000000000001e+00   2.3010981188872734e-10
  1.7400000000000000e+00   2.3036921249030253e-10
  1.7450000000000001e+00   2.3062441675576452e-10
  1.7500000000000000e+00   2.3087545452421070e-10
  1.7550000000000001e+00   2.3112235603238809e-10
  1.7600000000000000e+00   2.3136515188832024e-10
  1.7650000000000001e+00   2.3160387304639448e-10
  1.7700000000000000e+00   2.3183855078389319e-10
  1.7750000000000001e+00   2.3206921667895677e-10
  1.7800000000000000e+00   2.3229590258997744e-10
  1.7850000000000001e+00   2.3251864063642245e-10
  1.7900000000000000e+00   2.3273746318109179e-10
  1.7949999999999999e+00   2.3295240281381067e-10
  1.8000000000000000e+00   2.3316349233655247e-10
  1.8049999999999999e+00   2.3337076474998387e-10
  1.8100000000000001e+00   2.3357425324142294e-10
  1.8149999999999999e+00   2.3377399117420211e-10
  1.8200000000000001e+00   2.3397001207843079e-10
  1.8250000000000000e+00   2.3416234964315736e-10
  1.8300000000000001e+00   2.3435103770993161e-10
  1.8350000000000000e+00   2.3453611026776714e-10
  1.8400000000000001e+00   2.3471760144949889e-10
  1.8450000000000000e+00   2.3489554552952690e-10
  1.8500000000000001e+00   2.3506997692292722e-10
  1.8550000000000000e+00   2.3524093018590974e-10
  1.8600000000000001e+00   2.3540844001759444e-10
  1.8650000000000000e+00   2.3557254126307867e-10
  1.8700000000000001e+00   2.3573326891776389e-10
  1.8750000000000000e+00   2.3589065813290420e-10
  1.8800000000000001e+00   2.3604474422233942e-10
  1.8850000000000000e+00   2.3619556267036369e-10
  1.8900000000000001e+00   2.3634314914067567e-10
  1.8950000000000000e+00   2.3648753948634915e-10
  1.9000000000000001e+00   2.3662876976075547e-10
  1.9050000000000000e+00   2.3676687622936569e-10
  1.9100000000000001e+00   2.3690189538235642e-10
  1.9150000000000000e+00   2.3703386394794213e-10
  1.9199999999999999e+00   2.3716281890635177e-10
  1.9250000000000000e+00   2.3728879750436905e-10
  1.9299999999999999e+00   2.3741183727034889e-10
  1.9350000000000001e+00   2.3753197602962336e-10
  1.9399999999999999e+00   2.3764925192020619e-10
  1.9450000000000001e+00   2.3776370340870476e-10
  1.9500000000000000e+00   2.3787536930634977e-10
  1.9550000000000001e+00   2.3798428878505213e-10
  1.9600000000000000e+00   2.3809050139340188e-10
  1.9650000000000001e+00   2.3819404707252404e-10
  1.9700000000000000e+00   2.3829496617171106e-10
  1.9750000000000001e+00   2.3839329946375195e-10
  1.9800000000000000e+00   2.3848908815988260e-10
  1.9850000000000001e+00   2.3858237392428325e-10
