# ZND solution.
# Columns are: 0 spatial coordinate; 1 specific volume; 2 density;
# 3 flow velocity in lab frame; 4 pressure; 5 reaction progress variable 1;
# 6 reaction progress variable 2.
 -1.0074999999999999e+01   5.7798549004534316e-01   1.7301472393736903e+00   2.5884671144903884e+00   1.6876615246044722e+01   9.9999899999999997e-01   9.9998518448944163e-01
 -1.0049999999999999e+01   5.7798549004534316e-01   1.7301472393736903e+00   2.5884671144903884e+00   1.6876615246044722e+01   9.9999899999999997e-01   9.9998518448944163e-01
 -1.0024999999999999e+01   5.7798549004534316e-01   1.7301472393736903e+00   2.5884671144903884e+00   1.6876615246044722e+01   9.9999899999999997e-01   9.9998518448944163e-01
 -1.0000000000000000e+01   5.7798549004534316e-01   1.7301472393736903e+00   2.5884671144903884e+00   1.6876615246044722e+01   9.9999899999999997e-01   9.9998518448944163e-01
 -9.9749999999999996e+00   5.7798549004534316e-01   1.7301472393736903e+00   2.5884671144903884e+00   1.6876615246044722e+01   9.9999899999999997e-01   9.9998518448944163e-01
 -9.9499999999999993e+00   5.7798523159434001e-01   1.7301480130237166e+00   2.5884686997247974e+00   1.6876624969234420e+01   9.9999897809529126e-01   9.9998488210288250e-01
 -9.9249999999999989e+00   5.7798480934014684e-01   1.7301492770054709e+00   2.5884712896620323e+00   1.6876640854866796e+01   9.9999894219349150e-01   9.9998438750251495e-01
 -9.8999999999999986e+00   5.7798437395992508e-01   1.7301505802808013e+00   2.5884739601090425e+00   1.6876657234313718e+01   9.9999890503033240e-01   9.9998387680827194e-01
 -9.8750000000000000e+00   5.7798392505228191e-01   1.7301519240514247e+00   2.5884767135278097e+00   1.6876674122675997e+01   9.9999886656149417e-01   9.9998334949975320e-01
 -9.8499999999999996e+00   5.7798346220380103e-01   1.7301533095550630e+00   2.5884795524540634e+00   1.6876691535506776e+01   9.9999882674110063e-01   9.9998280503986847e-01
 -9.8249999999999993e+00   5.7798298498870371e-01   1.7301547380664577e+00   2.5884824794993588e+00   1.6876709488824282e+01   9.9999878552166233e-01   9.9998224287427806e-01
 -9.7999999999999989e+00   5.7798249296847071e-01   1.7301562108985031e+00   2.5884854973533966e+00   1.6876727999126057e+01   9.9999874285402179e-01   9.9998166243087050e-01
 -9.7749999999999986e+00   5.7798198569149029e-01   1.7301577294033010e+00   2.5884886087861809e+00   1.6876747083402194e+01   9.9999869868729330e-01   9.9998106311917501e-01
 -9.7500000000000000e+00   5.7798146269267225e-01   1.7301592949733164e+00   2.5884918166503881e+00   1.6876766759149859e+01   9.9999865296880364e-01   9.9998044432979971e-01
 -9.7249999999999996e+00   5.7798092349304753e-01   1.7301609090425782e+00   2.5884951238838214e+00   1.6876787044388351e+01   9.9999860564402798e-01   9.9997980543381171e-01
 -9.6999999999999993e+00   5.7798036759937843e-01   1.7301625730878465e+00   2.5884985335118027e+00   1.6876807957673783e+01   9.9999855665652526e-01   9.9997914578212310e-01
 -9.6749999999999989e+00   5.7797979450374892e-01   1.7301642886298403e+00   2.5885020486496839e+00   1.6876829518114462e+01   9.9999850594787154e-01   9.9997846470486096e-01
 -9.6499999999999986e+00   5.7797920368310651e-01   1.7301660572346100e+00   2.5885056725056592e+00   1.6876851745388166e+01   9.9999845345758842e-01   9.9997776151068152e-01
 -9.6250000000000000e+00   5.7797859459888656e-01   1.7301678805146643e+00   2.5885094083830662e+00   1.6876874659756236e+01   9.9999839912307353e-01   9.9997703548612604e-01
 -9.5999999999999996e+00   5.7797796669650547e-01   1.7301697601304880e+00   2.5885132596834985e+00   1.6876898282082678e+01   9.9999834287952327e-01   9.9997628589488374e-01
 -9.5749999999999993e+00   5.7797731940492258e-01   1.7301716977918546e+00   2.5885172299094892e+00   1.6876922633850619e+01   9.9999828465985652e-01   9.9997551197708201e-01
 -9.5499999999999989e+00   5.7797665213617799e-01   1.7301736952592133e+00   2.5885213226673471e+00   1.6876947737179705e+01   9.9999822439463515e-01   9.9997471294854767e-01
 -9.5249999999999986e+00   5.7797596428489073e-01   1.7301757543451910e+00   2.5885255416702364e+00   1.6876973614844992e+01   9.9999816201198033e-01   9.9997388800002474e-01
 -9.5000000000000000e+00   5.7797525522775584e-01   1.7301778769161007e+00   2.5885298907412579e+00   1.6877000290295840e+01   9.9999809743748669e-01   9.9997303629638024e-01
 -9.4749999999999996e+00   5.7797452432304430e-01   1.7301800648934402e+00   2.5885343738165196e+00   1.6877027787674752e+01   9.9999803059413395e-01   9.9997215697579067e-01
 -9.4499999999999993e+00   5.7797377091006619e-01   1.7301823202555016e+00   2.5885389949484274e+00   1.6877056131837556e+01   9.9999796140219466e-01   9.9997124914889246e-01
 -9.4249999999999989e+00   5.7797299430861926e-01   1.7301846450390235e+00   2.5885437583090680e+00   1.6877085348374148e+01   9.9999788977913873e-01   9.9997031189790664e-01
 -9.3999999999999986e+00   5.7797219381845732e-01   1.7301870413407860e+00   2.5885486681934693e+00   1.6877115463628503e+01   9.9999781563953605e-01   9.9996934427575535e-01
 -9.3750000000000000e+00   5.7797136871869204e-01   1.7301895113194026e+00   2.5885537290232707e+00   1.6877146504721175e+01   9.9999773889495303e-01   9.9996834530511547e-01
 -9.3499999999999996e+00   5.7797051826721579e-01   1.7301920571970513e+00   2.5885589453502615e+00   1.6877178499571009e+01   9.9999765945384822e-01   9.9996731397747862e-01
 -9.3249999999999993e+00   5.7796964170009713e-01   1.7301946812612874e+00   2.5885643218600896e+00   1.6877211476917886e+01   9.9999757722146188e-01   9.9996624925215039e-01
 -9.2999999999999989e+00   5.7796873823095585e-01   1.7301973858669166e+00   2.5885698633760943e+00   1.6877245466346221e+01   9.9999749209970379e-01   9.9996515005524711e-01
 -9.2749999999999986e+00   5.7796780705032391e-01   1.7302001734379118e+00   2.5885755748632269e+00   1.6877280498309030e+01   9.9999740398703518e-01   9.9996401527863388e-01
 -9.2500000000000000e+00   5.7796684732500858e-01   1.7302030464693232e+00   2.5885814614319562e+00   1.6877316604151872e+01   9.9999731277834902e-01   9.9996284377886469e-01
 -9.2249999999999996e+00   5.7796585819738366e-01   1.7302060075294026e+00   2.5885875283426163e+00   1.6877353816139514e+01   9.9999721836484212e-01   9.9996163437603647e-01
 -9.1999999999999993e+00   5.7796483878473792e-01   1.7302090592615589e+00   2.5885937810094024e+00   1.6877392167480455e+01   9.9999712063388768e-01   9.9996038585267166e-01
 -9.1749999999999989e+00   5.7796378817853611e-01   1.7302122043865742e+00   2.5886002250049041e+00   1.6877431692354715e+01   9.9999701946889852e-01   9.9995909695250407e-01
 -9.1499999999999986e+00   5.7796270544371009e-01   1.7302154457047292e+00   2.5886068660644521e+00   1.6877472425940507e+01   9.9999691474918995e-01   9.9995776637928335e-01
 -9.1250000000000000e+00   5.7796158961788902e-01   1.7302187860981135e+00   2.5886137100908426e+00   1.6877514404443200e+01   9.9999680634983334e-01   9.9995639279548598e-01
 -9.0999999999999996e+00   5.7796043971065658e-01   1.7302222285328532e+00   2.5886207631588904e+00   1.6877557665123263e+01   9.9999669414150916e-01   9.9995497482104367e-01
 -9.0749999999999993e+00   5.7795925470273835e-01   1.7302257760615491e+00   2.5886280315204147e+00   1.6877602246326841e+01   9.9999657799035035e-01   9.9995351103197760e-01
 -9.0499999999999989e+00   5.7795803354521191e-01   1.7302294318256466e+00   2.5886355216090826e+00   1.6877648187515462e+01   9.9999645775778467e-01   9.9995199995904371e-01
 -9.0249999999999986e+00   5.7795677515864752e-01   1.7302331990580140e+00   2.5886432400456827e+00   1.6877695529298368e+01   9.9999633330036619e-01   9.9995044008627187e-01
 -9.0000000000000000e+00   5.7795547843228745e-01   1.7302370810854053e+00   2.5886511936431544e+00   1.6877744313463399e+01   9.9999620446960680e-01   9.9994882984953304e-01
 -8.9749999999999996e+00   5.7795414222314689e-01   1.7302410813311588e+00   2.5886593894121077e+00   1.6877794583010800e+01   9.9999607111179689e-01   9.9994716763500080e-01
 -8.9499999999999993e+00   5.7795276535511364e-01   1.7302452033178981e+00   2.5886678345663405e+00   1.6877846382187116e+01   9.9999593306782220e-01   9.9994545177759619e-01
 -8.9249999999999989e+00   5.7795134661803282e-01   1.7302494506702801e+00   2.5886765365284559e+00   1.6877899756519600e+01   9.9999579017297358e-01   9.9994368055937655e-01
 -8.8999999999999986e+00   5.7794988476675746e-01   1.7302538271178456e+00   2.5886855029356841e+00   1.6877954752851949e+01   9.9999564225675053e-01   9.9994185220788012e-01
 -8.8750000000000000e+00   5.7794837852016989e-01   1.7302583364979558e+00   2.5886947416458854e+00   1.6878011419381114e+01   9.9999548914265668e-01   9.9993996489440551e-01
 -8.8499999999999996e+00   5.7794682656018415e-01   1.7302629827587876e+00   2.5887042607436688e+00   1.6878069805694832e+01   9.9999533064798940e-01   9.9993801673225369e-01
 -8.8249999999999993e+00   5.7794522753072108e-01   1.7302677699624127e+00   2.5887140685466767e+00   1.6878129962810174e+01   9.9999516658362086e-01   9.9993600577490238e-01
 -8.7999999999999989e+00   5.7794358003665314e-01   1.7302727022879640e+00   2.5887241736120612e+00   1.6878191943213263e+01   9.9999499675377201e-01   9.9993393001413133e-01
 -8.7749999999999986e+00   5.7794188264272506e-01   1.7302777840348782e+00   2.5887345847430994e+00   1.6878255800899865e+01   9.9999482095577863e-01   9.9993178737808963e-01
 -8.7500000000000000e+00   5.7794013387245102e-01   1.7302830196262089e+00   2.5887453109959613e+00   1.6878321591416871e+01   9.9999463897984919e-01   9.9992957572930508e-01
 -8.7249999999999996e+00   5.7793833220697000e-01   1.7302884136120638e+00   2.5887563616867286e+00   1.6878389371905385e+01   9.9999445060881353e-01   9.9992729286262216e-01
 -8.6999999999999993e+00   5.7793647608387677e-01   1.7302939706731169e+00   2.5887677463985668e+00   1.6878459201144675e+01   9.9999425561786293e-01   9.9992493650308167e-01
 -8.6749999999999989e+00   5.7793456389602771e-01   1.7302996956241974e+00   2.5887794749890469e+00   1.6878531139597126e+01   9.9999405377428130e-01   9.9992250430373686e-01
 -8.6499999999999986e+00   5.7793259399031571e-01   1.7303055934179701e+00   2.5887915575976632e+00   1.6878605249454306e+01   9.9999384483716736e-01   9.9991999384340735e-01
 -8.6250000000000000e+00   5.7793056466639647e-01   1.7303116691487637e+00   2.5888040046536429e+00   1.6878681594684899e+01   9.9999362855714535e-01   9.9991740262434570e-01
 -8.5999999999999996e+00   5.7792847417541782e-01   1.7303179280563903e+00   2.5888168268837410e+00   1.6878760241082500e+01   9.9999340467606812e-01   9.9991472806986015e-01
 -8.5749999999999993e+00   5.7792632071866479e-01   1.7303243755302178e+00   2.5888300353205511e+00   1.6878841256316598e+01   9.9999317292670631e-01   9.9991196752182565e-01
 -8.5499999999999989e+00   5.7792410244621295e-01   1.7303310171132193e+00   2.5888436413107652e+00   1.6878924709983231e+01   9.9999293303242975e-01   9.9990911823815432e-01
 -8.5249999999999986e+00   5.7792181745553994e-01   1.7303378585061480e+00   2.5888576565236887e+00   1.6879010673657231e+01   9.9999268470687619e-01   9.9990617739017140e-01
 -8.5000000000000000e+00   5.7791946379008297e-01   1.7303449055718754e+00   2.5888720929600915e+00   1.6879099220946475e+01   9.9999242765360885e-01   9.9990314205991737e-01
 -8.4749999999999996e+00   5.7791703943776451e-01   1.7303521643398252e+00   2.5888869629612459e+00   1.6879190427547368e+01   9.9999216156575998e-01   9.9990000923734312e-01
 -8.4499999999999993e+00   5.7791454232949391e-01   1.7303596410104818e+00   2.5889022792181215e+00   1.6879284371301207e+01   9.9999188612566470e-01   9.9989677581745340e-01
 -8.4249999999999989e+00   5.7791197033762531e-01   1.7303673419600294e+00   2.5889180547808417e+00   1.6879381132252195e+01   9.9999160100448092e-01   9.9989343859735091e-01
 -8.3999999999999986e+00   5.7790932127436123e-01   1.7303752737451559e+00   2.5889343030684753e+00   1.6879480792707497e+01   9.9999130586179341e-01   9.9988999427316028e-01
 -8.3750000000000000e+00   5.7790659289014656e-01   1.7303834431078875e+00   2.5889510378788878e+00   1.6879583437297669e+01   9.9999100034520871e-01   9.9988643943691458e-01
 -8.3499999999999996e+00   5.7790378287198130e-01   1.7303918569806671e+00   2.5889682733990900e+00   1.6879689153040118e+01   9.9999068408993130e-01   9.9988277057329411e-01
 -8.3249999999999993e+00   5.7790088884172164e-01   1.7304005224914698e+00   2.5889860242156586e+00   1.6879798029403037e+01   9.9999035671832626e-01   9.9987898405628239e-01
 -8.2999999999999989e+00   5.7789790835433996e-01   1.7304094469690428e+00   2.5890043053254086e+00   1.6879910158370851e+01   9.9999001783946762e-01   9.9987507614573312e-01
 -8.2749999999999986e+00   5.7789483889610482e-01   1.7304186379483866e+00   2.5890231321465569e+00   1.6880025634512698e+01   9.9998966704866976e-01   9.9987104298381890e-01
 -8.2500000000000000e+00   5.7789167788275686e-01   1.7304281031762510e+00   2.5890425205299104e+00   1.6880144555051043e+01   9.9998930392700081e-01   9.9986688059135620e-01
 -8.2249999999999996e+00   5.7788842265761708e-01   1.7304378506168350e+00   2.5890624867704681e+00   1.6880267019932855e+01   9.9998892804078232e-01   9.9986258486405744e-01
 -8.1999999999999993e+00   5.7788507048965498e-01   1.7304478884576091e+00   2.5890830476192717e+00   1.6880393131902274e+01   9.9998853894106832e-01   9.9985815156863311e-01
 -8.1749999999999989e+00   5.7788161857149767e-01   1.7304582251153162e+00   2.5891042202956167e+00   1.6880522996575529e+01   9.9998813616310656e-01   9.9985357633878402e-01
 -8.1499999999999986e+00   5.7787806401740571e-01   1.7304688692420758e+00   2.5891260224994666e+00   1.6880656722517074e+01   9.9998771922578111e-01   9.9984885467107365e-01
 -8.1250000000000000e+00   5.7787440386118261e-01   1.7304798297316881e+00   2.5891484724242773e+00   1.6880794421318239e+01   9.9998728763103584e-01   9.9984398192068114e-01
 -8.0999999999999996e+00   5.7787063505404068e-01   1.7304911157260709e+00   2.5891715887700841e+00   1.6880936207677518e+01   9.9998684086327561e-01   9.9983895329700523e-01
 -8.0749999999999993e+00   5.7786675446241775e-01   1.7305027366218491e+00   2.5891953907568968e+00   1.6881082199482705e+01   9.9998637838874849e-01   9.9983376385915601e-01
 -8.0499999999999989e+00   5.7786275886572447e-01   1.7305147020771514e+00   2.5892198981385137e+00   1.6881232517895654e+01   9.9998589965490392e-01   9.9982840851128607e-01
 -8.0249999999999986e+00   5.7785864495405792e-01   1.7305270220185145e+00   2.5892451312165470e+00   1.6881387287438276e+01   9.9998540408973047e-01   9.9982288199780478e-01
 -8.0000000000000000e+00   5.7785440932583820e-01   1.7305397066480184e+00   2.5892711108549178e+00   1.6881546636081474e+01   9.9998489110106792e-01   9.9981717889842214e-01
 -7.9749999999999996e+00   5.7785004848538923e-01   1.7305527664505935e+00   2.5892978584946968e+00   1.6881710695336128e+01   9.9998436007589619e-01   9.9981129362305377e-01
 -7.9499999999999993e+00   5.7784555884047717e-01   1.7305662122014591e+00   2.5893253961691998e+00   1.6881879600345741e+01   9.9998381037959860e-01   9.9980522040656639e-01
 -7.9249999999999989e+00   5.7784093669978154e-01   1.7305800549737653e+00   2.5893537465195005e+00   1.6882053489981541e+01   9.9998324135520023e-01   9.9979895330337665e-01
 -7.8999999999999995e+00   5.7783617827028178e-01   1.7305943061464939e+00   2.5893829328104601e+00   1.6882232506940817e+01   9.9998265232257721e-01   9.9979248618186178e-01
 -7.8750000000000000e+00   5.7783127965460379e-01   1.7306089774124824e+00   2.5894129789470024e+00   1.6882416797846751e+01   9.9998204257763879e-01   9.9978581271860911e-01
 -7.8499999999999996e+00   5.7782623684830681e-01   1.7306240807866327e+00   2.5894439094907553e+00   1.6882606513350485e+01   9.9998141139148133e-01   9.9977892639250232e-01
 -7.8249999999999993e+00   5.7782104573708348e-01   1.7306396286143819e+00   2.5894757496772236e+00   1.6882801808236437e+01   9.9998075800951181e-01   9.9977182047862001e-01
 -7.7999999999999989e+00   5.7781570209389665e-01   1.7306556335803716e+00   2.5895085254333514e+00   1.6883002841530050e+01   9.9998008165053864e-01   9.9976448804193430e-01
 -7.7749999999999995e+00   5.7781020157606688e-01   1.7306721087172656e+00   2.5895422633953862e+00   1.6883209776607348e+01   9.9997938150583288e-01   9.9975692193084420e-01
 -7.7500000000000000e+00   5.7780453972225165e-01   1.7306890674149014e+00   2.5895769909274073e+00   1.6883422781308568e+01   9.9997865673815356e-01   9.9974911477048789e-01
 -7.7249999999999996e+00   5.7779871194939914e-01   1.7307065234295214e+00   2.5896127361400092e+00   1.6883642028052787e+01   9.9997790648074014e-01   9.9974105895586751e-01
 -7.6999999999999993e+00   5.7779271354958028e-01   1.7307244908933768e+00   2.5896495279097338e+00   1.6883867693957086e+01   9.9997712983626830e-01   9.9973274664475842e-01
 -7.6749999999999989e+00   5.7778653968677562e-01   1.7307429843244719e+00   2.5896873958987774e+00   1.6884099960957435e+01   9.9997632587576901e-01   9.9972416975040679e-01
 -7.6499999999999995e+00   5.7778018539358278e-01   1.7307620186365544e+00   2.5897263705751867e+00   1.6884339015932568e+01   9.9997549363750859e-01   9.9971531993399898e-01
 -7.6250000000000000e+00   5.7777364556782695e-01   1.7307816091494024e+00   2.5897664832336478e+00   1.6884585050831493e+01   9.9997463212582971e-01   9.9970618859691129e-01
 -7.5999999999999996e+00   5.7776691496910937e-01   1.7308017715993058e+00   2.5898077660166572e+00   1.6884838262803342e+01   9.9997374030995057e-01   9.9969676687271869e-01
 -7.5749999999999993e+00   5.7775998821525598e-01   1.7308225221498552e+00   2.5898502519363040e+00   1.6885098854330980e+01   9.9997281712272046e-01   9.9968704561895227e-01
 -7.5499999999999989e+00   5.7775285977869895e-01   1.7308438774029393e+00   2.5898939748964640e+00   1.6885367033367132e+01   9.9997186145933392e-01   9.9967701540863685e-01
 -7.5249999999999995e+00   5.7774552398276879e-01   1.7308658544100204e+00   2.5899389697155422e+00   1.6885643013473882e+01   9.9997087217599578e-01   9.9966666652153868e-01
 -7.5000000000000000e+00   5.7773797499786694e-01   1.7308884706837768e+00   2.5899852721499497e+00   1.6885927013966654e+01   9.9996984808853939e-01   9.9965598893515573e-01
 -7.4749999999999996e+00   5.7773020683760179e-01   1.7309117442098660e+00   2.5900329189178026e+00   1.6886219260059598e+01   9.9996878797099786e-01   9.9964497231545890e-01
 -7.4499999999999993e+00   5.7772221335478680e-01   1.7309356934591105e+00   2.5900819477234687e+00   1.6886519983016122e+01   9.9996769055412138e-01   9.9963360600732265e-01
 -7.4249999999999989e+00   5.7771398823736919e-01   1.7309603373999027e+00   2.5901323972825385e+00   1.6886829420302075e+01   9.9996655452384309e-01   9.9962187902468136e-01
 -7.3999999999999995e+00   5.7770552500424632e-01   1.7309856955109606e+00   2.5901843073474868e+00   1.6887147815743131e+01   9.9996537851968992e-01   9.9960978004038537e-01
 -7.3750000000000000e+00   5.7769681700099729e-01   1.7310117877943469e+00   2.5902377187338521e+00   1.6887475419685376e+01   9.9996416113313646e-01   9.9959729737574843e-01
 -7.3499999999999996e+00   5.7768785739550466e-01   1.7310386347888322e+00   2.5902926733470930e+00   1.6887812489160023e+01   9.9996290090590079e-01   9.9958441898978667e-01
 -7.3249999999999993e+00   5.7767863917347495e-01   1.7310662575835756e+00   2.5903492142100610e+00   1.6888159288051924e+01   9.9996159632817760e-01   9.9957113246811613e-01
 -7.2999999999999989e+00   5.7766915513385086e-01   1.7310946778321434e+00   2.5904073854911438e+00   1.6888516087272180e+01   9.9996024583681020e-01   9.9955742501153377e-01
 -7.2749999999999995e+00   5.7765939788413012e-01   1.7311239177668241e+00   2.5904672325329736e+00   1.6888883164934256e+01   9.9995884781339628e-01   9.9954328342424781e-01
