# First column is time, second column is the perturbation of detonation velocity.
  0.0000000000000000e+00   1.0000000000000000e-10
  5.0000000000000001e-03   1.0030744865177041e-10
  1.0000000000000000e-02   1.0051738793410691e-10
  1.4999999999999999e-02   1.0069382135962687e-10
  2.0000000000000000e-02   1.0087421061562837e-10
  2.5000000000000001e-02   1.0107804895932407e-10
  2.9999999999999999e-02   1.0131260997036546e-10
  3.5000000000000003e-02   1.0157703423219686e-10
  4.0000000000000001e-02   1.0186542115821657e-10
  4.4999999999999998e-02   1.0216927803940980e-10
  5.0000000000000003e-02   1.0247948463117899e-10
  5.5000000000000000e-02   1.0278782219549120e-10
  5.9999999999999998e-02   1.0308806589942950e-10
  6.5000000000000002e-02   1.0337663039886984e-10
  7.0000000000000007e-02   1.0365277549654907e-10
  7.4999999999999997e-02   1.0391840950381536e-10
  8.0000000000000002e-02   1.0417756191689174e-10
  8.5000000000000006e-02   1.0443562594746136e-10
  8.9999999999999997e-02   1.0469848944653581e-10
  9.5000000000000001e-02   1.0497167657037571e-10
  1.0000000000000001e-01   1.0525961151740580e-10
  1.0500000000000000e-01   1.0556509154452030e-10
  1.1000000000000000e-01   1.0588902285667326e-10
  1.1500000000000000e-01   1.0623043466461656e-10
  1.2000000000000000e-01   1.0658674896333739e-10
  1.2500000000000000e-01   1.0695425130603495e-10
  1.3000000000000000e-01   1.0732868494783656e-10
  1.3500000000000001e-01   1.0770587964761206e-10
  1.4000000000000001e-01   1.0808232786248725e-10
  1.4499999999999999e-01   1.0845563404971606e-10
  1.4999999999999999e-01   1.0882478482855824e-10
  1.5500000000000000e-01   1.0919021532059224e-10
  1.6000000000000000e-01   1.0955367603557518e-10
  1.6500000000000001e-01   1.0991793121700957e-10
  1.7000000000000001e-01   1.1028634021362206e-10
  1.7500000000000002e-01   1.1066238581546924e-10
  1.7999999999999999e-01   1.1104921646612000e-10
  1.8500000000000000e-01   1.1144926304857715e-10
  1.9000000000000000e-01   1.1186397697460066e-10
  1.9500000000000001e-01   1.1229371696533251e-10
  2.0000000000000001e-01   1.1273779014330776e-10
  2.0500000000000002e-01   1.1319463194447753e-10
  2.0999999999999999e-01   1.1366209169812271e-10
  2.1500000000000000e-01   1.1413777866205339e-10
  2.2000000000000000e-01   1.1461941809799065e-10
  2.2500000000000001e-01   1.1510516888215694e-10
  2.3000000000000001e-01   1.1559386245121233e-10
  2.3500000000000001e-01   1.1608513605323562e-10
  2.3999999999999999e-01   1.1657944922240318e-10
  2.4500000000000000e-01   1.1707798880090204e-10
  2.5000000000000000e-01   1.1758248245825312e-10
  2.5500000000000000e-01   1.1809495165618932e-10
  2.6000000000000001e-01   1.1861744113366674e-10
  2.6500000000000001e-01   1.1915176273383343e-10
  2.7000000000000002e-01   1.1969928701098875e-10
  2.7500000000000002e-01   1.2026080746234546e-10
  2.8000000000000003e-01   1.2083649085434305e-10
  2.8500000000000003e-01   1.2142591466525235e-10
  2.8999999999999998e-01   1.2202818088719753e-10
  2.9499999999999998e-01   1.2264208586094867e-10
  2.9999999999999999e-01   1.2326631959873101e-10
  3.0499999999999999e-01   1.2389966580218041e-10
  3.1000000000000000e-01   1.2454117554917485e-10
  3.1500000000000000e-01   1.2519029290688233e-10
  3.2000000000000001e-01   1.2584691859090110e-10
  3.2500000000000001e-01   1.2651140700797239e-10
  3.3000000000000002e-01   1.2718450126580529e-10
  3.3500000000000002e-01   1.2786721876362574e-10
  3.4000000000000002e-01   1.2856070579081915e-10
  3.4500000000000003e-01   1.2926608252085698e-10
  3.5000000000000003e-01   1.2998429968086444e-10
  3.5499999999999998e-01   1.3071602521693467e-10
  3.5999999999999999e-01   1.3146157404453460e-10
  3.6499999999999999e-01   1.3222088732239042e-10
  3.7000000000000000e-01   1.3299356060316644e-10
  3.7500000000000000e-01   1.3377891367561374e-10
  3.8000000000000000e-01   1.3457608976425101e-10
  3.8500000000000001e-01   1.3538416859619330e-10
  3.9000000000000001e-01   1.3620227697586897e-10
  3.9500000000000002e-01   1.3702968189593117e-10
  4.0000000000000002e-01   1.3786585452432516e-10
  4.0500000000000003e-01   1.3871049807385339e-10
  4.1000000000000003e-01   1.3956353786716334e-10
  4.1500000000000004e-01   1.4042507710262617e-10
  4.1999999999999998e-01   1.4129532621502575e-10
  4.2499999999999999e-01   1.4217451677206428e-10
  4.2999999999999999e-01   1.4306281223118834e-10
  4.3500000000000000e-01   1.4396022752333755e-10
  4.4000000000000000e-01   1.4486656749212488e-10
  4.4500000000000001e-01   1.4578139106172349e-10
  4.5000000000000001e-01   1.4670400413738413e-10
  4.5500000000000002e-01   1.4763348022533703e-10
  4.6000000000000002e-01   1.4856870414322233e-10
  4.6500000000000002e-01   1.4950843143784209e-10
  4.7000000000000003e-01   1.5045135454800798e-10
  4.7500000000000003e-01   1.5139616648222566e-10
  4.7999999999999998e-01   1.5234161377449922e-10
  4.8499999999999999e-01   1.5328653252080939e-10
  4.8999999999999999e-01   1.5422986404133465e-10
  4.9500000000000000e-01   1.5517064974438128e-10
  5.0000000000000000e-01   1.5610800766045547e-10
  5.0500000000000000e-01   1.5704109548835492e-10
  5.1000000000000001e-01   1.5796906656335558e-10
  5.1500000000000001e-01   1.5889102576103560e-10
  5.2000000000000002e-01   1.5980599196949673e-10
  5.2500000000000002e-01   1.6071287251173473e-10
  5.3000000000000003e-01   1.6161045300226582e-10
  5.3500000000000003e-01   1.6249740387387197e-10
  5.4000000000000004e-01   1.6337230253548307e-10
  5.4500000000000004e-01   1.6423366812742131e-10
  5.5000000000000004e-01   1.6508000437468884e-10
  5.5500000000000005e-01   1.6590984526470620e-10
  5.6000000000000005e-01   1.6672179825162401e-10
  5.6500000000000006e-01   1.6751458036926364e-10
  5.7000000000000006e-01   1.6828704388157865e-10
  5.7500000000000007e-01   1.6903818970878708e-10
  5.7999999999999996e-01   1.6976716859920963e-10
  5.8499999999999996e-01   1.7047327163075775e-10
  5.8999999999999997e-01   1.7115591291293187e-10
  5.9499999999999997e-01   1.7181460816871783e-10
  5.9999999999999998e-01   1.7244895312874277e-10
  6.0499999999999998e-01   1.7305860537008369e-10
  6.0999999999999999e-01   1.7364327245607806e-10
  6.1499999999999999e-01   1.7420270811732085e-10
  6.2000000000000000e-01   1.7473671693068619e-10
  6.2500000000000000e-01   1.7524516668695551e-10
  6.3000000000000000e-01   1.7572800655854388e-10
  6.3500000000000001e-01   1.7618528842084458e-10
  6.4000000000000001e-01   1.7661718832598853e-10
  6.4500000000000002e-01   1.7702402519896136e-10
  6.5000000000000002e-01   1.7740627428696472e-10
  6.5500000000000003e-01   1.7776457365748659e-10
  6.6000000000000003e-01   1.7809972298735868e-10
  6.6500000000000004e-01   1.7841267487604066e-10
  6.7000000000000004e-01   1.7870451981635191e-10
  6.7500000000000004e-01   1.7897646665065903e-10
  6.8000000000000005e-01   1.7922982075079334e-10
  6.8500000000000005e-01   1.7946596224968272e-10
  6.9000000000000006e-01   1.7968632643111686e-10
  6.9500000000000006e-01   1.7989238790162906e-10
  7.0000000000000007e-01   1.8008564950726167e-10
  7.0499999999999996e-01   1.8026763621867744e-10
  7.0999999999999996e-01   1.8043989349523273e-10
  7.1499999999999997e-01   1.8060398904635280e-10
  7.1999999999999997e-01   1.8076151650855126e-10
  7.2499999999999998e-01   1.8091409938983936e-10
  7.2999999999999998e-01   1.8106339370707260e-10
  7.3499999999999999e-01   1.8121108803014434e-10
  7.3999999999999999e-01   1.8135890009677741e-10
  7.4500000000000000e-01   1.8150856970158525e-10
  7.5000000000000000e-01   1.8166184811413769e-10
  7.5500000000000000e-01   1.8182048476761042e-10
  7.6000000000000001e-01   1.8198621232033993e-10
  7.6500000000000001e-01   1.8216073138629661e-10
  7.7000000000000002e-01   1.8234569624126782e-10
  7.7500000000000002e-01   1.8254270264915143e-10
  7.8000000000000003e-01   1.8275327864958489e-10
  7.8500000000000003e-01   1.8297887875339466e-10
  7.9000000000000004e-01   1.8322088156439696e-10
  7.9500000000000004e-01   1.8348059044397372e-10
  8.0000000000000004e-01   1.8375923651037754e-10
  8.0500000000000005e-01   1.8405798305592391e-10
  8.1000000000000005e-01   1.8437793039217258e-10
  8.1500000000000006e-01   1.8472012019645920e-10
  8.2000000000000006e-01   1.8508553861496735e-10
  8.2500000000000007e-01   1.8547511764546194e-10
  8.3000000000000007e-01   1.8588973463494374e-10
  8.3499999999999996e-01   1.8633021003877088e-10
  8.3999999999999997e-01   1.8679730385623974e-10
  8.4499999999999997e-01   1.8729171134977861e-10
  8.4999999999999998e-01   1.8781405874979140e-10
  8.5499999999999998e-01   1.8836489963828715e-10
  8.5999999999999999e-01   1.8894471259964706e-10
  8.6499999999999999e-01   1.8955390054652377e-10
  8.7000000000000000e-01   1.9019279190212608e-10
  8.7500000000000000e-01   1.9086164358057450e-10
  8.8000000000000000e-01   1.9156064548774830e-10
  8.8500000000000001e-01   1.9228992609437044e-10
  8.9000000000000001e-01   1.9304955853091989e-10
  8.9500000000000002e-01   1.9383956662977737e-10
  9.0000000000000002e-01   1.9465993039216827e-10
  9.0500000000000003e-01   1.9551059047419054e-10
  9.1000000000000003e-01   1.9639145144781868e-10
  9.1500000000000004e-01   1.9730238377482387e-10
  9.2000000000000004e-01   1.9824322460843609e-10
  9.2500000000000004e-01   1.9921377768604885e-10
  9.3000000000000005e-01   2.0021381267839665e-10
  9.3500000000000005e-01   2.0124306440586843e-10
  9.4000000000000006e-01   2.0230123231873516e-10
  9.4500000000000006e-01   2.0338798057091171e-10
  9.5000000000000007e-01   2.0450293890906968e-10
  9.5500000000000007e-01   2.0564570446772112e-10
  9.5999999999999996e-01   2.0681584442557082e-10
  9.6499999999999997e-01   2.0801289935755137e-10
  9.6999999999999997e-01   2.0923638702591733e-10
  9.7499999999999998e-01   2.1048580630296595e-10
  9.7999999999999998e-01   2.1176064091167172e-10
  9.8499999999999999e-01   2.1306036270678859e-10
  9.8999999999999999e-01   2.1438443429021340e-10
  9.9500000000000000e-01   2.1573231084881867e-10
  1.0000000000000000e+00   2.1710344120640048e-10
  1.0050000000000001e+00   2.1849726817939143e-10
  1.0100000000000000e+00   2.1991322840576223e-10
  1.0150000000000001e+00   2.2135075186855871e-10
  1.0200000000000000e+00   2.2280926135460763e-10
  1.0249999999999999e+00   2.2428817207466007e-10
  1.0300000000000000e+00   2.2578689162769714e-10
  1.0349999999999999e+00   2.2730482042706097e-10
  1.0400000000000000e+00   2.2884135262961924e-10
  1.0449999999999999e+00   2.3039587753234417e-10
  1.0500000000000000e+00   2.3196778133382415e-10
  1.0549999999999999e+00   2.3355644910966262e-10
  1.0600000000000001e+00   2.3516126682579430e-10
  1.0649999999999999e+00   2.3678162321426376e-10
  1.0700000000000001e+00   2.3841691136025398e-10
  1.0750000000000000e+00   2.4006652989230659e-10
  1.0800000000000001e+00   2.4172988372272788e-10
  1.0850000000000000e+00   2.4340638434392699e-10
  1.0900000000000001e+00   2.4509544974077324e-10
  1.0950000000000000e+00   2.4679650402193948e-10
  1.1000000000000001e+00   2.4850897689961964e-10
  1.1050000000000000e+00   2.5023230315446540e-10
  1.1100000000000001e+00   2.5196592221131825e-10
  1.1150000000000000e+00   2.5370927792403954e-10
  1.1200000000000001e+00   2.5546181862916543e-10
  1.1250000000000000e+00   2.5722299748415353e-10
  1.1300000000000001e+00   2.5899227306290302e-10
  1.1350000000000000e+00   2.6076911014474455e-10
  1.1400000000000001e+00   2.6255298060770398e-10
  1.1450000000000000e+00   2.6434336432521551e-10
  1.1500000000000001e+00   2.6613974996829354e-10
  1.1550000000000000e+00   2.6794163563112232e-10
  1.1599999999999999e+00   2.6974852922412660e-10
  1.1650000000000000e+00   2.7155994861064591e-10
  1.1699999999999999e+00   2.7337542149668717e-10
  1.1750000000000000e+00   2.7519448511328604e-10
  1.1799999999999999e+00   2.7701668575395430e-10
  1.1850000000000001e+00   2.7884157824290020e-10
  1.1899999999999999e+00   2.8066872541203710e-10
  1.1950000000000001e+00   2.8249769765664008e-10
  1.2000000000000000e+00   2.8432807262262987e-10
  1.2050000000000001e+00   2.8615943505571727e-10
  1.2100000000000000e+00   2.8799137681743381e-10
  1.2150000000000001e+00   2.8982349704897962e-10
  1.2200000000000000e+00   2.9165540244398064e-10
  1.2250000000000001e+00   2.9348670757806491e-10
  1.2300000000000000e+00   2.9531703523797329e-10
  1.2350000000000001e+00   2.9714601669589457e-10
  1.2400000000000000e+00   2.9897329188492399e-10
  1.2450000000000001e+00   3.0079850944714532e-10
  1.2500000000000000e+00   3.0262132664438061e-10
  1.2550000000000001e+00   3.0444140914045161e-10
  1.2600000000000000e+00   3.0625843068030355e-10
  1.2650000000000001e+00   3.0807207270349081e-10
  1.2700000000000000e+00   3.0988202393594665e-10
  1.2750000000000001e+00   3.1168798000417497e-10
  1.2800000000000000e+00   3.1348964311036580e-10
  1.2849999999999999e+00   3.1528672179659532e-10
  1.2900000000000000e+00   3.1707893081289804e-10
  1.2949999999999999e+00   3.1886599108959925e-10
  1.3000000000000000e+00   3.2064762980085783e-10
  1.3049999999999999e+00   3.2242358049562830e-10
  1.3100000000000001e+00   3.2419358326548372e-10
  1.3149999999999999e+00   3.2595738491657327e-10
  1.3200000000000001e+00   3.2771473911543525e-10
  1.3250000000000000e+00   3.2946540648477933e-10
  1.3300000000000001e+00   3.3120915463461090e-10
  1.3350000000000000e+00   3.3294575812471730e-10
  1.3400000000000001e+00   3.3467499836508241e-10
  1.3450000000000000e+00   3.3639666346979267e-10
  1.3500000000000001e+00   3.3811054808635602e-10
  1.3550000000000000e+00   3.3981645322536221e-10
  1.3600000000000001e+00   3.4151418611489871e-10
  1.3650000000000000e+00   3.4320356010036772e-10
  1.3700000000000001e+00   3.4488439460405794e-10
  1.3750000000000000e+00   3.4655651515100081e-10
  1.3800000000000001e+00   3.4821975345943216e-10
  1.3850000000000000e+00   3.4987394758670798e-10
  1.3900000000000001e+00   3.5151894211574130e-10
  1.3950000000000000e+00   3.5315458836358822e-10
  1.4000000000000001e+00   3.5478074459302967e-10
  1.4050000000000000e+00   3.5639727620978948e-10
  1.4099999999999999e+00   3.5800405593199207e-10
  1.4150000000000000e+00   3.5960096392390615e-10
  1.4199999999999999e+00   3.6118788789212571e-10
  1.4250000000000000e+00   3.6276472314822070e-10
  1.4299999999999999e+00   3.6433137264677962e-10
  1.4350000000000001e+00   3.6588774701106255e-10
  1.4399999999999999e+00   3.6743376455983601e-10
  1.4450000000000001e+00   3.6896935134832360e-10
  1.4500000000000000e+00   3.7049444123377282e-10
  1.4550000000000001e+00   3.7200897597236588e-10
  1.4600000000000000e+00   3.7351290534966481e-10
  1.4650000000000001e+00   3.7500618734215006e-10
  1.4700000000000000e+00   3.7648878830330062e-10
  1.4750000000000001e+00   3.7796068316459893e-10
  1.4800000000000000e+00   3.7942185564016015e-10
  1.4850000000000001e+00   3.8087229842352606e-10
  1.4900000000000000e+00   3.8231201336644007e-10
  1.4950000000000001e+00   3.8374101163187940e-10
  1.5000000000000000e+00   3.8515931381684360e-10
  1.5050000000000001e+00   3.8656695004391455e-10
  1.5100000000000000e+00   3.8796396002390845e-10
  1.5150000000000001e+00   3.8935039309462100e-10
  1.5200000000000000e+00   3.9072630824238772e-10
  1.5250000000000001e+00   3.9209177411379368e-10
  1.5300000000000000e+00   3.9344686902434252e-10
  1.5350000000000001e+00   3.9479168096940292e-10
  1.5400000000000000e+00   3.9612630764053380e-10
  1.5449999999999999e+00   3.9745085644772214e-10
  1.5500000000000000e+00   3.9876544454549546e-10
  1.5549999999999999e+00   4.0007019885866581e-10
  1.5600000000000001e+00   4.0136525610188888e-10
  1.5649999999999999e+00   4.0265076278645992e-10
  1.5700000000000001e+00   4.0392687520787360e-10
  1.5750000000000000e+00   4.0519375940858155e-10
  1.5800000000000001e+00   4.0645159111192164e-10
  1.5850000000000000e+00   4.0770055562512576e-10
  1.5900000000000001e+00   4.0894084771136076e-10
  1.5950000000000000e+00   4.1017267143263830e-10
  1.6000000000000001e+00   4.1139623996692104e-10
  1.6050000000000000e+00   4.1261177540366774e-10
  1.6100000000000001e+00   4.1381950852234473e-10
  1.6150000000000000e+00   4.1501967855806956e-10
  1.6200000000000001e+00   4.1621253295766664e-10
  1.6250000000000000e+00   4.1739832712814367e-10
  1.6300000000000001e+00   4.1857732417816695e-10
  1.6350000000000000e+00   4.1974979465170965e-10
  1.6400000000000001e+00   4.2091601625188932e-10
  1.6450000000000000e+00   4.2207627355222264e-10
  1.6500000000000001e+00   4.2323085769222053e-10
  1.6550000000000000e+00   4.2438006605441779e-10
  1.6600000000000001e+00   4.2552420192055652e-10
  1.6650000000000000e+00   4.2666357410559236e-10
  1.6699999999999999e+00   4.2779849656934895e-10
  1.6750000000000000e+00   4.2892928800682299e-10
  1.6799999999999999e+00   4.3005627141921073e-10
  1.6850000000000001e+00   4.3117977366854040e-10
  1.6899999999999999e+00   4.3230012501927009e-10
  1.6950000000000001e+00   4.3341765867032268e-10
  1.7000000000000000e+00   4.3453271028077630e-10
  1.7050000000000001e+00   4.3564561749188516e-10
  1.7100000000000000e+00   4.3675671944736515e-10
  1.7150000000000001e+00   4.3786635631306005e-10
  1.7200000000000000e+00   4.3897486879632019e-10
  1.7250000000000001e+00   4.4008259766479577e-10
  1.7300000000000000e+00   4.4118988326393852e-10
  1.7350000000000001e+00   4.4229706503236708e-10
  1.7400000000000000e+00   4.4340448101438714e-10
  1.7450000000000001e+00   4.4451246736933548e-10
  1.7500000000000000e+00   4.4562135787796463e-10
  1.7550000000000001e+00   4.4673148344673231e-10
  1.7600000000000000e+00   4.4784317161150214e-10
  1.7650000000000001e+00   4.4895674604272278e-10
  1.7700000000000000e+00   4.5007252605455665e-10
  1.7750000000000001e+00   4.5119082612063480e-10
  1.7800000000000000e+00   4.5231195539910775e-10
  1.7850000000000001e+00   4.5343621726944914e-10
  1.7900000000000000e+00   4.5456390888310225e-10
  1.7949999999999999e+00   4.5569532072958553e-10
  1.8000000000000000e+00   4.5683073621916422e-10
  1.8049999999999999e+00   4.5797043128272244e-10
  1.8100000000000001e+00   4.5911467398908476e-10
  1.8149999999999999e+00   4.6026372417978628e-10
  1.8200000000000001e+00   4.6141783312119636e-10
  1.8250000000000000e+00   4.6257724317395335e-10
  1.8300000000000001e+00   4.6374218747986008e-10
  1.8350000000000000e+00   4.6491288966666415e-10
  1.8400000000000001e+00   4.6608956357147388e-10
  1.8450000000000000e+00   4.6727241298386822e-10
  1.8500000000000001e+00   4.6846163141001980e-10
  1.8550000000000000e+00   4.6965740185931136e-10
  1.8600000000000001e+00   4.7085989665497304e-10
  1.8650000000000000e+00   4.7206927727019252e-10
  1.8700000000000001e+00   4.7328569419096388e-10
  1.8750000000000000e+00   4.7450928680667285e-10
  1.8800000000000001e+00   4.7574018332908694e-10
  1.8850000000000000e+00   4.7697850074008943e-10
  1.8900000000000001e+00   4.7822434476818258e-10
  1.8950000000000000e+00   4.7947780989353518e-10
  1.9000000000000001e+00   4.8073897938117599e-10
  1.9050000000000000e+00   4.8200792534185186e-10
  1.9100000000000001e+00   4.8328470882007556e-10
  1.9150000000000000e+00   4.8456937990895941e-10
  1.9199999999999999e+00   4.8586197789155958e-10
  1.9250000000000000e+00   4.8716253140859728e-10
  1.9299999999999999e+00   4.8847105865256242e-10
  1.9350000000000001e+00   4.8978756758830462e-10
  1.9399999999999999e+00   4.9111205620025988e-10
  1.9450000000000001e+00   4.9244451276644904e-10
  1.9500000000000000e+00   4.9378491615928567e-10
  1.9550000000000001e+00   4.9513323617309541e-10
  1.9600000000000000e+00   4.9648943387804838e-10
  1.9650000000000001e+00   4.9785346199999544e-10
  1.9700000000000000e+00   4.9922526532548093e-10
  1.9750000000000001e+00   5.0060478113100571e-10
  1.9800000000000000e+00   5.0199193963545530e-10
  1.9850000000000001e+00   5.0338666447449556e-10
