# First column is time, second column is the perturbation of detonation velocity.
  0.0000000000000000e+00   1.0000000000000000e-10
  5.0000000000000001e-03   1.0021596015370240e-10
  1.0000000000000000e-02   1.0047095109850319e-10
  1.4999999999999999e-02   1.0069540982632083e-10
  2.0000000000000000e-02   1.0095327926677561e-10
  2.5000000000000001e-02   1.0118239728820732e-10
  2.9999999999999999e-02   1.0144575669327479e-10
  3.5000000000000003e-02   1.0168586560101484e-10
  4.0000000000000001e-02   1.0195277390120176e-10
  4.4999999999999998e-02   1.0220482859371301e-10
  5.0000000000000003e-02   1.0247574899200668e-10
  5.5000000000000000e-02   1.0273949509851417e-10
  5.9999999999999998e-02   1.0301550566669849e-10
  6.5000000000000002e-02   1.0329003886831783e-10
  7.0000000000000007e-02   1.0357233205887935e-10
  7.4999999999999997e-02   1.0385687198701626e-10
  8.0000000000000002e-02   1.0414661937729059e-10
  8.5000000000000006e-02   1.0444074802444038e-10
  8.9999999999999997e-02   1.0473893288434263e-10
  9.5000000000000001e-02   1.0504249386531230e-10
  1.0000000000000001e-01   1.0534978777911558e-10
  1.0500000000000000e-01   1.0566275302192650e-10
  1.1000000000000000e-01   1.0597956830011924e-10
  1.1500000000000000e-01   1.0630203693636157e-10
  1.2000000000000000e-01   1.0662869271621925e-10
  1.2500000000000000e-01   1.0696091606041502e-10
  1.3000000000000000e-01   1.0729773008958265e-10
  1.3500000000000001e-01   1.0764004587614126e-10
  1.4000000000000001e-01   1.0798731067400790e-10
  1.4499999999999999e-01   1.0834004311256717e-10
  1.4999999999999999e-01   1.0869799813177626e-10
  1.5500000000000000e-01   1.0906143039608209e-10
  1.6000000000000000e-01   1.0943029772196484e-10
  1.6500000000000001e-01   1.0980470994115306e-10
  1.7000000000000001e-01   1.1018473983366385e-10
  1.7500000000000002e-01   1.1057042845146140e-10
  1.7999999999999999e-01   1.1096189243349318e-10
  1.8500000000000000e-01   1.1135914282582299e-10
  1.9000000000000000e-01   1.1176229604410539e-10
  1.9500000000000001e-01   1.1217135607711566e-10
  2.0000000000000001e-01   1.1258642412738022e-10
  2.0500000000000002e-01   1.1300751274594930e-10
  2.0999999999999999e-01   1.1343470769207700e-10
  2.1500000000000000e-01   1.1386803431391820e-10
  2.2000000000000000e-01   1.1430756250816404e-10
  2.2500000000000001e-01   1.1475332376760426e-10
  2.3000000000000001e-01   1.1520536968581440e-10
  2.3500000000000001e-01   1.1566372947896577e-10
  2.3999999999999999e-01   1.1612843720774333e-10
  2.4500000000000000e-01   1.1659951621873796e-10
  2.5000000000000000e-01   1.1707698717063691e-10
  2.5500000000000000e-01   1.1756086653989533e-10
  2.6000000000000001e-01   1.1805116388642502e-10
  2.6500000000000001e-01   1.1854788580216567e-10
  2.7000000000000002e-01   1.1905102884000945e-10
  2.7500000000000002e-01   1.1956058494463798e-10
  2.8000000000000003e-01   1.2007653447423765e-10
  2.8500000000000003e-01   1.2059885150181464e-10
  2.8999999999999998e-01   1.2112749865117386e-10
  2.9499999999999998e-01   1.2166243111910215e-10
  2.9999999999999999e-01   1.2220359304246459e-10
  3.0499999999999999e-01   1.2275091958727974e-10
  3.1000000000000000e-01   1.2330433426900936e-10
  3.1500000000000000e-01   1.2386374946000510e-10
  3.2000000000000001e-01   1.2442906460801958e-10
  3.2500000000000001e-01   1.2500016604873196e-10
  3.3000000000000002e-01   1.2557692612814417e-10
  3.3500000000000002e-01   1.2615920283450212e-10
  3.4000000000000002e-01   1.2674683942529441e-10
  3.4500000000000003e-01   1.2733966385587705e-10
  3.5000000000000003e-01   1.2793748841286223e-10
  3.5499999999999998e-01   1.2854010890282350e-10
  3.5999999999999999e-01   1.2914730417245251e-10
  3.6499999999999999e-01   1.2975883529363677e-10
  3.7000000000000000e-01   1.3037444516077820e-10
  3.7500000000000000e-01   1.3099385792205329e-10
  3.8000000000000000e-01   1.3161677875910855e-10
  3.8500000000000001e-01   1.3224289356198445e-10
  3.9000000000000001e-01   1.3287186879791444e-10
  3.9500000000000002e-01   1.3350335129816806e-10
  4.0000000000000002e-01   1.3413696814745365e-10
  4.0500000000000003e-01   1.3477232657381915e-10
  4.1000000000000003e-01   1.3540901395566406e-10
  4.1500000000000004e-01   1.3604659793611152e-10
  4.1999999999999998e-01   1.3668462668604117e-10
  4.2499999999999999e-01   1.3732262931989259e-10
  4.2999999999999999e-01   1.3796011644462586e-10
  4.3500000000000000e-01   1.3859658084549321e-10
  4.4000000000000000e-01   1.3923149827740711e-10
  4.4500000000000001e-01   1.3986432838323972e-10
  4.5000000000000001e-01   1.4049451572820382e-10
  4.5500000000000002e-01   1.4112149098477880e-10
  4.6000000000000002e-01   1.4174467226716983e-10
  4.6500000000000002e-01   1.4236346663699006e-10
  4.7000000000000003e-01   1.4297727176854603e-10
  4.7500000000000003e-01   1.4358547777236212e-10
  4.7999999999999998e-01   1.4418746915677017e-10
  4.8499999999999999e-01   1.4478262691727428e-10
  4.8999999999999999e-01   1.4537033073944788e-10
  4.9500000000000000e-01   1.4594996130909627e-10
  5.0000000000000000e-01   1.4652090272308628e-10
  5.0500000000000000e-01   1.4708254499421797e-10
  5.1000000000000001e-01   1.4763428663982014e-10
  5.1500000000000001e-01   1.4817553733783938e-10
  5.2000000000000002e-01   1.4870572063041948e-10
  5.2500000000000002e-01   1.4922427665072225e-10
  5.3000000000000003e-01   1.4973066484935309e-10
  5.3500000000000003e-01   1.5022436669683362e-10
  5.4000000000000004e-01   1.5070488834173484e-10
  5.4500000000000004e-01   1.5117176320491419e-10
  5.5000000000000004e-01   1.5162455449172333e-10
  5.5500000000000005e-01   1.5206285760298727e-10
  5.6000000000000005e-01   1.5248630242495676e-10
  5.6500000000000006e-01   1.5289455547729968e-10
  5.7000000000000006e-01   1.5328732189859447e-10
  5.7500000000000007e-01   1.5366434725007247e-10
  5.7999999999999996e-01   1.5402541912098525e-10
  5.8499999999999996e-01   1.5437036852205427e-10
  5.8999999999999997e-01   1.5469907105654173e-10
  5.9499999999999997e-01   1.5501144786114279e-10
  5.9999999999999998e-01   1.5530746631086215e-10
  6.0499999999999998e-01   1.5558714048373125e-10
  6.0999999999999999e-01   1.5585053138271286e-10
  6.1499999999999999e-01   1.5609774691401326e-10
  6.2000000000000000e-01   1.5632894162323297e-10
  6.2500000000000000e-01   1.5654431619340413e-10
  6.3000000000000000e-01   1.5674411671164415e-10
  6.3500000000000001e-01   1.5692863371367163e-10
  6.4000000000000001e-01   1.5709820101747447e-10
  6.4500000000000002e-01   1.5725319435897640e-10
  6.5000000000000002e-01   1.5739402984361220e-10
  6.5500000000000003e-01   1.5752116222852312e-10
  6.6000000000000003e-01   1.5763508305075014e-10
  6.6500000000000004e-01   1.5773631861746709e-10
  6.7000000000000004e-01   1.5782542787495649e-10
  6.7500000000000004e-01   1.5790300017359170e-10
  6.8000000000000005e-01   1.5796965294645518e-10
  6.8500000000000005e-01   1.5802602931926320e-10
  6.9000000000000006e-01   1.5807279566898790e-10
  6.9500000000000006e-01   1.5811063914797832e-10
  7.0000000000000007e-01   1.5814026518961497e-10
  7.0499999999999996e-01   1.5816239501065488e-10
  7.0999999999999996e-01   1.5817776312455766e-10
  7.1499999999999997e-01   1.5818711487921387e-10
  7.1999999999999997e-01   1.5819120403164482e-10
  7.2499999999999998e-01   1.5819079037133293e-10
  7.2999999999999998e-01   1.5818663740286244e-10
  7.3499999999999999e-01   1.5817951009746851e-10
  7.3999999999999999e-01   1.5817017272194815e-10
  7.4500000000000000e-01   1.5815938675221517e-10
  7.5000000000000000e-01   1.5814790887764067e-10
  7.5500000000000000e-01   1.5813648910125509e-10
  7.6000000000000001e-01   1.5812586893991488e-10
  7.6500000000000001e-01   1.5811677972763480e-10
  7.7000000000000002e-01   1.5810994102447118e-10
  7.7500000000000002e-01   1.5810605913252363e-10
  7.8000000000000003e-01   1.5810582571988355e-10
  7.8500000000000003e-01   1.5810991655258670e-10
  7.9000000000000004e-01   1.5811899033396137e-10
  7.9500000000000004e-01   1.5813368765010695e-10
  8.0000000000000004e-01   1.5815463001970490e-10
  8.0500000000000005e-01   1.5818241904588727e-10
  8.1000000000000005e-01   1.5821763566750819e-10
  8.1500000000000006e-01   1.5826083950682918e-10
  8.2000000000000006e-01   1.5831256831036435e-10
  8.2500000000000007e-01   1.5837333747937706e-10
  8.3000000000000007e-01   1.5844363968631572e-10
  8.3499999999999996e-01   1.5852394457330111e-10
  8.3999999999999997e-01   1.5861469852863277e-10
  8.4499999999999997e-01   1.5871632453720063e-10
  8.4999999999999998e-01   1.5882922210063413e-10
  8.5499999999999998e-01   1.5895376722302042e-10
  8.5999999999999999e-01   1.5909031245804523e-10
  8.6499999999999999e-01   1.5923918701346688e-10
  8.7000000000000000e-01   1.5940069690888290e-10
  8.7500000000000000e-01   1.5957512518284308e-10
  8.8000000000000000e-01   1.5976273214542510e-10
  8.8500000000000001e-01   1.5996375567250788e-10
  8.9000000000000001e-01   1.6017841153807088e-10
  8.9500000000000002e-01   1.6040689378099090e-10
  9.0000000000000002e-01   1.6064937510293202e-10
  9.0500000000000003e-01   1.6090600729408178e-10
  9.1000000000000003e-01   1.6117692168363275e-10
  9.1500000000000004e-01   1.6146222961206251e-10
  9.2000000000000004e-01   1.6176202292240545e-10
  9.2500000000000004e-01   1.6207637446786846e-10
  9.3000000000000005e-01   1.6240533863327339e-10
  9.3500000000000005e-01   1.6274895186795935e-10
  9.4000000000000006e-01   1.6310723322792656e-10
  9.4500000000000006e-01   1.6348018492513298e-10
  9.5000000000000007e-01   1.6386779288201278e-10
  9.5500000000000007e-01   1.6427002728941035e-10
  9.5999999999999996e-01   1.6468684316626495e-10
  9.6499999999999997e-01   1.6511818091950049e-10
  9.6999999999999997e-01   1.6556396690269796e-10
  9.7499999999999998e-01   1.6602411397224473e-10
  9.7999999999999998e-01   1.6649852203975707e-10
  9.8499999999999999e-01   1.6698707861968602e-10
  9.8999999999999999e-01   1.6748965937111396e-10
  9.9500000000000000e-01   1.6800612863284720e-10
  1.0000000000000000e+00   1.6853633995100648e-10
  1.0050000000000001e+00   1.6908013659839590e-10
  1.0100000000000000e+00   1.6963735208502341e-10
  1.0150000000000001e+00   1.7020781065921199e-10
  1.0200000000000000e+00   1.7079132779881861e-10
  1.0249999999999999e+00   1.7138771069213965e-10
  1.0300000000000000e+00   1.7199675870814777e-10
  1.0349999999999999e+00   1.7261826385576379e-10
  1.0400000000000000e+00   1.7325201123191702e-10
  1.0449999999999999e+00   1.7389777945821123e-10
  1.0500000000000000e+00   1.7455534110604627e-10
  1.0549999999999999e+00   1.7522446311010171e-10
  1.0600000000000001e+00   1.7590490717012133e-10
  1.0649999999999999e+00   1.7659643014097749e-10
  1.0700000000000001e+00   1.7729878441102731e-10
  1.0750000000000000e+00   1.7801171826879964e-10
  1.0800000000000001e+00   1.7873497625809143e-10
  1.0850000000000000e+00   1.7946829952156073e-10
  1.0900000000000001e+00   1.8021142613294349e-10
  1.0950000000000000e+00   1.8096409141803431e-10
  1.1000000000000001e+00   1.8172602826459144e-10
  1.1050000000000000e+00   1.8249696742134298e-10
  1.1100000000000001e+00   1.8327663778628752e-10
  1.1150000000000000e+00   1.8406476668449439e-10
  1.1200000000000001e+00   1.8486108013561817e-10
  1.1250000000000000e+00   1.8566530311135469e-10
  1.1300000000000001e+00   1.8647715978307548e-10
  1.1350000000000000e+00   1.8729637375987430e-10
  1.1400000000000001e+00   1.8812266831728757e-10
  1.1450000000000000e+00   1.8895576661692261e-10
  1.1500000000000001e+00   1.8979539191726884e-10
  1.1550000000000000e+00   1.9064126777593177e-10
  1.1599999999999999e+00   1.9149311824356525e-10
  1.1650000000000000e+00   1.9235066804974689e-10
  1.1699999999999999e+00   1.9321364278107221e-10
  1.1750000000000000e+00   1.9408176905170894e-10
  1.1799999999999999e+00   1.9495477466668652e-10
  1.1850000000000001e+00   1.9583238877815984e-10
  1.1899999999999999e+00   1.9671434203491263e-10
  1.1950000000000001e+00   1.9760036672533856e-10
  1.2000000000000000e+00   1.9849019691415549e-10
  1.2050000000000001e+00   1.9938356857308226e-10
  1.2100000000000000e+00   2.0028021970572502e-10
  1.2150000000000001e+00   2.0117989046689481e-10
  1.2200000000000000e+00   2.0208232327658825e-10
  1.2250000000000001e+00   2.0298726292884633e-10
  1.2300000000000000e+00   2.0389445669570826e-10
  1.2350000000000001e+00   2.0480365442646652e-10
  1.2400000000000000e+00   2.0571460864242339e-10
  1.2450000000000001e+00   2.0662707462734385e-10
  1.2500000000000000e+00   2.0754081051379453e-10
  1.2550000000000001e+00   2.0845557736554486e-10
  1.2600000000000000e+00   2.0937113925620528e-10
  1.2650000000000001e+00   2.1028726334427273e-10
  1.2700000000000000e+00   2.1120371994473372e-10
  1.2750000000000001e+00   2.1212028259738336e-10
  1.2800000000000000e+00   2.1303672813200210e-10
  1.2849999999999999e+00   2.1395283673052309e-10
  1.2900000000000000e+00   2.1486839198632565e-10
  1.2949999999999999e+00   2.1578318096076760e-10
  1.3000000000000000e+00   2.1669699423707650e-10
  1.3049999999999999e+00   2.1760962597170328e-10
  1.3100000000000001e+00   2.1852087394323417e-10
  1.3149999999999999e+00   2.1943053959895729e-10
  1.3200000000000001e+00   2.2033842809915929e-10
  1.3250000000000000e+00   2.2124434835923798e-10
  1.3300000000000001e+00   2.2214811308968852e-10
  1.3350000000000000e+00   2.2304953883403396e-10
  1.3400000000000001e+00   2.2394844600474782e-10
  1.3450000000000000e+00   2.2484465891721910e-10
  1.3500000000000001e+00   2.2573800582180065e-10
  1.3550000000000000e+00   2.2662831893397022e-10
  1.3600000000000001e+00   2.2751543446263756e-10
  1.3650000000000000e+00   2.2839919263661229e-10
  1.3700000000000001e+00   2.2927943772925030e-10
  1.3750000000000000e+00   2.3015601808128662e-10
  1.3800000000000001e+00   2.3102878612185729e-10
  1.3850000000000000e+00   2.3189759838770792e-10
  1.3900000000000001e+00   2.3276231554057913e-10
  1.3950000000000000e+00   2.3362280238275825e-10
  1.4000000000000001e+00   2.3447892787077867e-10
  1.4050000000000000e+00   2.3533056512724208e-10
  1.4099999999999999e+00   2.3617759145074324e-10
  1.4150000000000000e+00   2.3701988832385942e-10
  1.4199999999999999e+00   2.3785734141917913e-10
  1.4250000000000000e+00   2.3868984060332531e-10
  1.4299999999999999e+00   2.3951727993894078e-10
  1.4350000000000001e+00   2.4033955768458971e-10
  1.4399999999999999e+00   2.4115657629253378e-10
  1.4450000000000001e+00   2.4196824240433498e-10
  1.4500000000000000e+00   2.4277446684424365e-10
  1.4550000000000001e+00   2.4357516461031678e-10
  1.4600000000000000e+00   2.4437025486323039e-10
  1.4650000000000001e+00   2.4515966091272313e-10
  1.4700000000000000e+00   2.4594331020164367e-10
  1.4750000000000001e+00   2.4672113428753516e-10
  1.4800000000000000e+00   2.4749306882173247e-10
  1.4850000000000001e+00   2.4825905352591158e-10
  1.4900000000000000e+00   2.4901903216606607e-10
  1.4950000000000001e+00   2.4977295252386295e-10
  1.5000000000000000e+00   2.5052076636534843e-10
  1.5050000000000001e+00   2.5126242940697332e-10
  1.5100000000000000e+00   2.5199790127890701e-10
  1.5150000000000001e+00   2.5272714548562452e-10
  1.5200000000000000e+00   2.5345012936374203e-10
  1.5250000000000001e+00   2.5416682403709651e-10
  1.5300000000000000e+00   2.5487720436905606e-10
  1.5350000000000001e+00   2.5558124891206176e-10
  1.5400000000000000e+00   2.5627893985441290e-10
  1.5449999999999999e+00   2.5697026296429593e-10
  1.5500000000000000e+00   2.5765520753108904e-10
  1.5549999999999999e+00   2.5833376630395547e-10
  1.5600000000000001e+00   2.5900593542777098e-10
  1.5649999999999999e+00   2.5967171437641359e-10
  1.5700000000000001e+00   2.6033110588347638e-10
  1.5750000000000000e+00   2.6098411587044696e-10
  1.5800000000000001e+00   2.6163075337242780e-10
  1.5850000000000000e+00   2.6227103046146023e-10
  1.5900000000000001e+00   2.6290496216754000e-10
  1.5950000000000000e+00   2.6353256639740069e-10
  1.6000000000000001e+00   2.6415386385117296e-10
  1.6050000000000000e+00   2.6476887793701112e-10
  1.6100000000000001e+00   2.6537763468380419e-10
  1.6150000000000000e+00   2.6598016265208713e-10
  1.6200000000000001e+00   2.6657649284327578e-10
  1.6250000000000000e+00   2.6716665860736123e-10
  1.6300000000000001e+00   2.6775069554919796e-10
  1.6350000000000000e+00   2.6832864143353619e-10
  1.6400000000000001e+00   2.6890053608894334e-10
  1.6450000000000000e+00   2.6946642131077933e-10
  1.6500000000000001e+00   2.7002634076338098e-10
  1.6550000000000000e+00   2.7058033988162712e-10
  1.6600000000000001e+00   2.7112846577205720e-10
  1.6650000000000000e+00   2.7167076711371401e-10
  1.6699999999999999e+00   2.7220729405889731e-10
  1.6750000000000000e+00   2.7273809813400218e-10
  1.6799999999999999e+00   2.7326323214063823e-10
  1.6850000000000001e+00   2.7378275005720136e-10
  1.6899999999999999e+00   2.7429670694110512e-10
  1.6950000000000001e+00   2.7480515883184122e-10
  1.7000000000000000e+00   2.7530816265507443e-10
  1.7050000000000001e+00   2.7580577612794808e-10
  1.7100000000000000e+00   2.7629805766580344e-10
  1.7150000000000001e+00   2.7678506629047772e-10
  1.7200000000000000e+00   2.7726686154038911e-10
  1.7250000000000001e+00   2.7774350338256977e-10
  1.7300000000000000e+00   2.7821505212684144e-10
  1.7350000000000001e+00   2.7868156834229513e-10
  1.7400000000000000e+00   2.7914311277625603e-10
  1.7450000000000001e+00   2.7959974627589011e-10
  1.7500000000000000e+00   2.8005152971261949e-10
  1.7550000000000001e+00   2.8049852390949338e-10
  1.7600000000000000e+00   2.8094078957167287e-10
  1.7650000000000001e+00   2.8137838722015587e-10
  1.7700000000000000e+00   2.8181137712889123e-10
  1.7750000000000001e+00   2.8223981926539431e-10
  1.7800000000000000e+00   2.8266377323499349e-10
  1.7850000000000001e+00   2.8308329822880658e-10
  1.7900000000000000e+00   2.8349845297555584e-10
  1.7949999999999999e+00   2.8390929569730960e-10
  1.8000000000000000e+00   2.8431588406923169e-10
  1.8049999999999999e+00   2.8471827518341483e-10
  1.8100000000000001e+00   2.8511652551685685e-10
  1.8149999999999999e+00   2.8551069090363568e-10
  1.8200000000000001e+00   2.8590082651132652e-10
  1.8250000000000000e+00   2.8628698682168530e-10
  1.8300000000000001e+00   2.8666922561563772e-10
  1.8350000000000000e+00   2.8704759596256340e-10
  1.8400000000000001e+00   2.8742215021389825e-10
  1.8450000000000000e+00   2.8779294000102587e-10
  1.8500000000000001e+00   2.8816001623745675e-10
  1.8550000000000000e+00   2.8852342912524852e-10
  1.8600000000000001e+00   2.8888322816563875e-10
  1.8650000000000000e+00   2.8923946217383308e-10
  1.8700000000000001e+00   2.8959217929789119e-10
  1.8750000000000000e+00   2.8994142704163599e-10
  1.8800000000000001e+00   2.9028725229151073e-10
  1.8850000000000000e+00   2.9062970134728388e-10
  1.8900000000000001e+00   2.9096881995651883e-10
  1.8950000000000000e+00   2.9130465335267790e-10
  1.9000000000000001e+00   2.9163724629676223e-10
  1.9050000000000000e+00   2.9196664312234796e-10
  1.9100000000000001e+00   2.9229288778389053e-10
  1.9150000000000000e+00   2.9261602390815172e-10
  1.9199999999999999e+00   2.9293609484859932e-10
  1.9250000000000000e+00   2.9325314374261908e-10
  1.9299999999999999e+00   2.9356721357137921e-10
  1.9350000000000001e+00   2.9387834722217082e-10
  1.9399999999999999e+00   2.9418658755304610e-10
  1.9450000000000001e+00   2.9449197745957352e-10
  1.9500000000000000e+00   2.9479455994351889e-10
  1.9550000000000001e+00   2.9509437818325845e-10
  1.9600000000000000e+00   2.9539147560572141e-10
  1.9650000000000001e+00   2.9568589595966398e-10
  1.9700000000000000e+00   2.9597768339006600e-10
  1.9750000000000001e+00   2.9626688251343524e-10
  1.9800000000000000e+00   2.9655353849381203e-10
  1.9850000000000001e+00   2.9683769711925710e-10
