# First column is time, second column is the perturbation of detonation velocity.
  0.0000000000000000e+00   1.0000000000000000e-10
  5.0000000000000001e-03   1.0025060229763984e-10
  1.0000000000000000e-02   1.0041962352510337e-10
  1.4999999999999999e-02   1.0062432050173039e-10
  2.0000000000000000e-02   1.0088085483265456e-10
  2.5000000000000001e-02   1.0116340869656450e-10
  2.9999999999999999e-02   1.0143892602507147e-10
  3.5000000000000003e-02   1.0168764019408686e-10
  4.0000000000000001e-02   1.0191049906927304e-10
  4.4999999999999998e-02   1.0212483367537998e-10
  5.0000000000000003e-02   1.0235280234215142e-10
  5.5000000000000000e-02   1.0260927663435640e-10
  5.9999999999999998e-02   1.0289508675401796e-10
  6.5000000000000002e-02   1.0319820377319337e-10
  7.0000000000000007e-02   1.0350126596393858e-10
  7.4999999999999997e-02   1.0379094133161311e-10
  8.0000000000000002e-02   1.0406424330396339e-10
  8.5000000000000006e-02   1.0432898820895161e-10
  8.9999999999999997e-02   1.0459881143287151e-10
  9.5000000000000001e-02   1.0488582038798908e-10
  1.0000000000000001e-01   1.0519480050205581e-10
  1.0500000000000000e-01   1.0552168986134603e-10
  1.1000000000000000e-01   1.0585661863475047e-10
  1.1500000000000000e-01   1.0618950665040378e-10
  1.2000000000000000e-01   1.0651515848325372e-10
  1.2500000000000000e-01   1.0683537808148203e-10
  1.3000000000000000e-01   1.0715737634659297e-10
  1.3500000000000001e-01   1.0748966711988344e-10
  1.4000000000000001e-01   1.0783776546758299e-10
  1.4499999999999999e-01   1.0820184837510739e-10
  1.4999999999999999e-01   1.0857732692982420e-10
  1.5500000000000000e-01   1.0895772805284134e-10
  1.6000000000000000e-01   1.0933820105555373e-10
  1.6500000000000001e-01   1.0971783714715278e-10
  1.7000000000000001e-01   1.1009977765936867e-10
  1.7500000000000002e-01   1.1048929791727137e-10
  1.7999999999999999e-01   1.1089104000410452e-10
  1.8500000000000000e-01   1.1130686318172995e-10
  1.9000000000000000e-01   1.1173531371443775e-10
  1.9500000000000001e-01   1.1217280155623608e-10
  2.0000000000000001e-01   1.1261571313253222e-10
  2.0500000000000002e-01   1.1306230792598700e-10
  2.0999999999999999e-01   1.1351347956587230e-10
  2.1500000000000000e-01   1.1397212685299801e-10
  2.2000000000000000e-01   1.1444159907861943e-10
  2.2500000000000001e-01   1.1492408973015639e-10
  2.3000000000000001e-01   1.1541978314841440e-10
  2.3500000000000001e-01   1.1592709667169052e-10
  2.3999999999999999e-01   1.1644377875625115e-10
  2.4500000000000000e-01   1.1696822399143743e-10
  2.5000000000000000e-01   1.1750032764799705e-10
  2.5500000000000000e-01   1.1804150510323131e-10
  2.6000000000000001e-01   1.1859395752603143e-10
  2.6500000000000001e-01   1.1915963111677095e-10
  2.7000000000000002e-01   1.1973942084616029e-10
  2.7500000000000002e-01   1.2033298804256401e-10
  2.8000000000000003e-01   1.2093921569769416e-10
  2.8500000000000003e-01   1.2155700563153713e-10
  2.8999999999999998e-01   1.2218598386012412e-10
  2.9499999999999998e-01   1.2282677335318844e-10
  2.9999999999999999e-01   1.2348074557170134e-10
  3.0499999999999999e-01   1.2414943097700365e-10
  3.1000000000000000e-01   1.2483391863467068e-10
  3.1500000000000000e-01   1.2553454448785592e-10
  3.2000000000000001e-01   1.2625099168930771e-10
  3.2500000000000001e-01   1.2698270802499481e-10
  3.3000000000000002e-01   1.2772939810433897e-10
  3.3500000000000002e-01   1.2849133717428554e-10
  3.4000000000000002e-01   1.2926936964706289e-10
  3.4500000000000003e-01   1.3006462708223970e-10
  3.5000000000000003e-01   1.3087813604378029e-10
  3.5499999999999998e-01   1.3171052241126707e-10
  3.5999999999999999e-01   1.3256194821755656e-10
  3.6499999999999999e-01   1.3343228658633011e-10
  3.7000000000000000e-01   1.3432142127430942e-10
  3.7500000000000000e-01   1.3522950764551251e-10
  3.8000000000000000e-01   1.3615706876374122e-10
  3.8500000000000001e-01   1.3710489593247451e-10
  3.9000000000000001e-01   1.3807382347809792e-10
  3.9500000000000002e-01   1.3906450237984463e-10
  4.0000000000000002e-01   1.4007728421623874e-10
  4.0500000000000003e-01   1.4111225975151694e-10
  4.1000000000000003e-01   1.4216941459597623e-10
  4.1500000000000004e-01   1.4324881006597383e-10
  4.1999999999999998e-01   1.4435069464342737e-10
  4.2499999999999999e-01   1.4547549602946915e-10
  4.2999999999999999e-01   1.4662370837479913e-10
  4.3500000000000000e-01   1.4779573955711881e-10
  4.4000000000000000e-01   1.4899179591600655e-10
  4.4500000000000001e-01   1.5021185452384217e-10
  4.5000000000000001e-01   1.5145572380227359e-10
  4.5500000000000002e-01   1.5272314897806722e-10
  4.6000000000000002e-01   1.5401390101082688e-10
  4.6500000000000002e-01   1.5532780222478592e-10
  4.7000000000000003e-01   1.5666467815101736e-10
  4.7500000000000003e-01   1.5802426264743846e-10
  4.7999999999999998e-01   1.5940610340686561e-10
  4.8499999999999999e-01   1.6080950944408040e-10
  4.8999999999999999e-01   1.6223355661646062e-10
  4.9500000000000000e-01   1.6367713657608252e-10
  5.0000000000000000e-01   1.6513901459678524e-10
  5.0500000000000000e-01   1.6661786124642097e-10
  5.1000000000000001e-01   1.6811224001857266e-10
  5.1500000000000001e-01   1.6962055737748430e-10
  5.2000000000000002e-01   1.7114100033778618e-10
  5.2500000000000002e-01   1.7267149104768939e-10
  5.3000000000000003e-01   1.7420967727956084e-10
  5.3500000000000003e-01   1.7575295913715673e-10
  5.4000000000000004e-01   1.7729853578231841e-10
  5.4500000000000004e-01   1.7884344953503572e-10
  5.5000000000000004e-01   1.8038461040071251e-10
  5.5500000000000005e-01   1.8191879774011634e-10
  5.6000000000000005e-01   1.8344264972113255e-10
  5.6500000000000006e-01   1.8495265837645071e-10
  5.7000000000000006e-01   1.8644518564211616e-10
  5.7500000000000007e-01   1.8791650587229212e-10
  5.7999999999999996e-01   1.8936286866965059e-10
  5.8499999999999996e-01   1.9078056835797102e-10
  5.8999999999999997e-01   1.9216600626893120e-10
  5.9499999999999997e-01   1.9351573842808435e-10
  5.9999999999999998e-01   1.9482651024141858e-10
  6.0499999999999998e-01   1.9609528658536745e-10
  6.0999999999999999e-01   1.9731928710863493e-10
  6.1499999999999999e-01   1.9849603242552505e-10
  6.2000000000000000e-01   1.9962339986120623e-10
  6.2500000000000000e-01   2.0069968130844312e-10
  6.3000000000000000e-01   2.0172363352649307e-10
  6.3500000000000001e-01   2.0269451357865364e-10
  6.4000000000000001e-01   2.0361209743934933e-10
  6.4500000000000002e-01   2.0447668519278302e-10
  6.5000000000000002e-01   2.0528909908097077e-10
  6.5500000000000003e-01   2.0605067989076556e-10
  6.6000000000000003e-01   2.0676328366021633e-10
  6.6500000000000004e-01   2.0742927656846558e-10
  6.7000000000000004e-01   2.0805152335291185e-10
  6.7500000000000004e-01   2.0863336483775173e-10
  6.8000000000000005e-01   2.0917858281783610e-10
  6.8500000000000005e-01   2.0969135410435423e-10
  6.9000000000000006e-01   2.1017619819238583e-10
  6.9500000000000006e-01   2.1063792357949925e-10
  7.0000000000000007e-01   2.1108157622463730e-10
  7.0499999999999996e-01   2.1151239100016181e-10
  7.0999999999999996e-01   2.1193574469080256e-10
  7.1499999999999997e-01   2.1235710822808194e-10
  7.1999999999999997e-01   2.1278199666986637e-10
  7.2499999999999998e-01   2.1321591731793248e-10
  7.2999999999999998e-01   2.1366431821896242e-10
  7.3499999999999999e-01   2.1413254015100333e-10
  7.3999999999999999e-01   2.1462577468873934e-10
  7.4500000000000000e-01   2.1514902941418821e-10
  7.5000000000000000e-01   2.1570709960977359e-10
  7.5500000000000000e-01   2.1630454466667483e-10
  7.6000000000000001e-01   2.1694566739289657e-10
  7.6500000000000001e-01   2.1763449527497181e-10
  7.7000000000000002e-01   2.1837476396048814e-10
  7.7500000000000002e-01   2.1916990410885842e-10
  7.8000000000000003e-01   2.2002303287345035e-10
  7.8500000000000003e-01   2.2093695063118906e-10
  7.9000000000000004e-01   2.2191414255300817e-10
  7.9500000000000004e-01   2.2295678374740272e-10
  8.0000000000000004e-01   2.2406674641357793e-10
  8.0500000000000005e-01   2.2524560779356249e-10
  8.1000000000000005e-01   2.2649465846981111e-10
  8.1500000000000006e-01   2.2781491130076275e-10
  8.2000000000000006e-01   2.2920711165940879e-10
  8.2500000000000007e-01   2.3067174950404097e-10
  8.3000000000000007e-01   2.3220907329966359e-10
  8.3499999999999996e-01   2.3381910522933672e-10
  8.3999999999999997e-01   2.3550165679420101e-10
  8.4499999999999997e-01   2.3725634395414077e-10
  8.4999999999999998e-01   2.3908260134990527e-10
  8.5499999999999998e-01   2.4097969565279968e-10
  8.5999999999999999e-01   2.4294673845575846e-10
  8.6499999999999999e-01   2.4498269919094922e-10
  8.7000000000000000e-01   2.4708641833905400e-10
  8.7500000000000000e-01   2.4925662083251087e-10
  8.8000000000000000e-01   2.5149192925180484e-10
  8.8500000000000001e-01   2.5379087632042265e-10
  8.9000000000000001e-01   2.5615191634904565e-10
  8.9500000000000002e-01   2.5857343556936425e-10
  9.0000000000000002e-01   2.6105376157657982e-10
  9.0500000000000003e-01   2.6359117223325629e-10
  9.1000000000000003e-01   2.6618390432806126e-10
  9.1500000000000004e-01   2.6883016208406608e-10
  9.2000000000000004e-01   2.7152812538905635e-10
  9.2500000000000004e-01   2.7427595748973313e-10
  9.3000000000000005e-01   2.7707181190941901e-10
  9.3500000000000005e-01   2.7991383849141267e-10
  9.4000000000000006e-01   2.8280018865421366e-10
  9.4500000000000006e-01   2.8572902007543332e-10
  9.5000000000000007e-01   2.8869850104001773e-10
  9.5500000000000007e-01   2.9170681459887830e-10
  9.5999999999999996e-01   2.9475216254293916e-10
  9.6499999999999997e-01   2.9783276908103308e-10
  9.6999999999999997e-01   3.0094688407346792e-10
  9.7499999999999998e-01   3.0409278572596563e-10
  9.7999999999999998e-01   3.0726878275491889e-10
  9.8499999999999999e-01   3.1047321613568234e-10
  9.8999999999999999e-01   3.1370446059113400e-10
  9.9500000000000000e-01   3.1696092595103255e-10
  1.0000000000000000e+00   3.2024105843450040e-10
  1.0050000000000001e+00   3.2354334182231864e-10
  1.0100000000000000e+00   3.2686629843552595e-10
  1.0150000000000001e+00   3.3020848984267034e-10
  1.0200000000000000e+00   3.3356851727040840e-10
  1.0249999999999999e+00   3.3694502175937941e-10
  1.0300000000000000e+00   3.4033668415379165e-10
  1.0349999999999999e+00   3.4374222501757814e-10
  1.0400000000000000e+00   3.4716040453416601e-10
  1.0449999999999999e+00   3.5059002239255666e-10
  1.0500000000000000e+00   3.5402991761812388e-10
  1.0549999999999999e+00   3.5747896829275485e-10
  1.0600000000000001e+00   3.6093609112883622e-10
  1.0649999999999999e+00   3.6440024090114905e-10
  1.0700000000000001e+00   3.6787040977784401e-10
  1.0750000000000000e+00   3.7134562660777117e-10
  1.0800000000000001e+00   3.7482495621056533e-10
  1.0850000000000000e+00   3.7830749868605926e-10
  1.0900000000000001e+00   3.8179238872752979e-10
  1.0950000000000000e+00   3.8527879490490054e-10
  1.1000000000000001e+00   3.8876591888683158e-10
  1.1050000000000000e+00   3.9225299459073230e-10
  1.1100000000000001e+00   3.9573928727513147e-10
  1.1150000000000000e+00   3.9922409260617863e-10
  1.1200000000000001e+00   4.0270673573150935e-10
  1.1250000000000000e+00   4.0618657038116079e-10
  1.1300000000000001e+00   4.0966297799497949e-10
  1.1350000000000000e+00   4.1313536685972480e-10
  1.1400000000000001e+00   4.1660317123441527e-10
  1.1450000000000000e+00   4.2006585045035176e-10
  1.1500000000000001e+00   4.2352288798735496e-10
  1.1550000000000000e+00   4.2697379054166615e-10
  1.1599999999999999e+00   4.3041808710685518e-10
  1.1650000000000000e+00   4.3385532808479509e-10
  1.1699999999999999e+00   4.3728508443245838e-10
  1.1750000000000000e+00   4.4070694683828691e-10
  1.1799999999999999e+00   4.4412052491509929e-10
  1.1850000000000001e+00   4.4752544639768256e-10
  1.1899999999999999e+00   4.5092135634078648e-10
  1.1950000000000001e+00   4.5430791632265386e-10
  1.2000000000000000e+00   4.5768480366549677e-10
  1.2050000000000001e+00   4.6105171068458785e-10
  1.2100000000000000e+00   4.6440834397230995e-10
  1.2150000000000001e+00   4.6775442371577069e-10
  1.2200000000000000e+00   4.7108968304044833e-10
  1.2250000000000001e+00   4.7441386737061875e-10
  1.2300000000000000e+00   4.7772673380028970e-10
  1.2350000000000001e+00   4.8102805047402499e-10
  1.2400000000000000e+00   4.8431759598217904e-10
  1.2450000000000001e+00   4.8759515877719110e-10
  1.2500000000000000e+00   4.9086053661589319e-10
  1.2550000000000001e+00   4.9411353602856403e-10
  1.2600000000000000e+00   4.9735397181103538e-10
  1.2650000000000001e+00   5.0058166653377630e-10
  1.2700000000000000e+00   5.0379645006251145e-10
  1.2750000000000001e+00   5.0699815908796356e-10
  1.2800000000000000e+00   5.1018663666598267e-10
  1.2849999999999999e+00   5.1336173177180984e-10
  1.2900000000000000e+00   5.1652329887243713e-10
  1.2949999999999999e+00   5.1967119751915630e-10
  1.3000000000000000e+00   5.2280529195966396e-10
  1.3049999999999999e+00   5.2592545076698726e-10
  1.3100000000000001e+00   5.2903154648206130e-10
  1.3149999999999999e+00   5.3212345526811364e-10
  1.3200000000000001e+00   5.3520105657728197e-10
  1.3250000000000000e+00   5.3826423283193873e-10
  1.3300000000000001e+00   5.4131286912408256e-10
  1.3350000000000000e+00   5.4434685293556909e-10
  1.3400000000000001e+00   5.4736607388044892e-10
  1.3450000000000000e+00   5.5037042346906742e-10
  1.3500000000000001e+00   5.5335979489277894e-10
  1.3550000000000000e+00   5.5633408282839662e-10
  1.3600000000000001e+00   5.5929318326268555e-10
  1.3650000000000000e+00   5.6223699333857069e-10
  1.3700000000000001e+00   5.6516541122564876e-10
  1.3750000000000000e+00   5.6807833601763357e-10
  1.3800000000000001e+00   5.7097566765862006e-10
  1.3850000000000000e+00   5.7385730689901934e-10
  1.3900000000000001e+00   5.7672315528120764e-10
  1.3950000000000000e+00   5.7957311515477295e-10
  1.4000000000000001e+00   5.8240708972174711e-10
  1.4050000000000000e+00   5.8522498311305911e-10
  1.4099999999999999e+00   5.8802670049821343e-10
  1.4150000000000000e+00   5.9081214823052792e-10
  1.4199999999999999e+00   5.9358123403005438e-10
  1.4250000000000000e+00   5.9633386720576168e-10
  1.4299999999999999e+00   5.9906995891799390e-10
  1.4350000000000001e+00   6.0178942248196210e-10
  1.4399999999999999e+00   6.0449217371317313e-10
  1.4450000000000001e+00   6.0717813131619770e-10
  1.4500000000000000e+00   6.0984721731870825e-10
  1.4550000000000001e+00   6.1249935755308720e-10
  1.4600000000000000e+00   6.1513448218790640e-10
  1.4650000000000001e+00   6.1775252631128976e-10
  1.4700000000000000e+00   6.2035343056773108e-10
  1.4750000000000001e+00   6.2293714184958061e-10
  1.4800000000000000e+00   6.2550361404424743e-10
  1.4850000000000001e+00   6.2805280883822124e-10
  1.4900000000000000e+00   6.3058469657914490e-10
  1.4950000000000001e+00   6.3309925719723253e-10
  1.5000000000000000e+00   6.3559648118715296e-10
  1.5050000000000001e+00   6.3807637065108947e-10
  1.5100000000000000e+00   6.4053894040309791e-10
  1.5150000000000001e+00   6.4298421913422972e-10
  1.5200000000000000e+00   6.4541225063731810e-10
  1.5250000000000001e+00   6.4782309508984234e-10
  1.5300000000000000e+00   6.5021683039289869e-10
  1.5350000000000001e+00   6.5259355356388597e-10
  1.5400000000000000e+00   6.5495338217999714e-10
  1.5449999999999999e+00   6.5729645586892896e-10
  1.5500000000000000e+00   6.5962293784240350e-10
  1.5549999999999999e+00   6.6193301646723570e-10
  1.5600000000000001e+00   6.6422690686782486e-10
  1.5649999999999999e+00   6.6650485255320103e-10
  1.5700000000000001e+00   6.6876712706109583e-10
  1.5750000000000000e+00   6.7101403561091303e-10
  1.5800000000000001e+00   6.7324591675689804e-10
  1.5850000000000000e+00   6.7546314403218856e-10
  1.5900000000000001e+00   6.7766612757380164e-10
  1.5950000000000000e+00   6.7985531571798221e-10
  1.6000000000000001e+00   6.8203119655478855e-10
  1.6050000000000000e+00   6.8419429943035713e-10
  1.6100000000000001e+00   6.8634519638500579e-10
  1.6150000000000000e+00   6.8848450351518918e-10
  1.6200000000000001e+00   6.9061288224729573e-10
  1.6250000000000000e+00   6.9273104051131397e-10
  1.6300000000000001e+00   6.9483973380253179e-10
  1.6350000000000000e+00   6.9693976611960888e-10
  1.6400000000000001e+00   6.9903199076767953e-10
  1.6450000000000000e+00   7.0111731101556765e-10
  1.6500000000000001e+00   7.0319668059679242e-10
  1.6550000000000000e+00   7.0527110404477808e-10
  1.6600000000000001e+00   7.0734163685354746e-10
  1.6650000000000000e+00   7.0940938545615121e-10
  1.6699999999999999e+00   7.1147550701411535e-10
  1.6750000000000000e+00   7.1354120901230025e-10
  1.6799999999999999e+00   7.1560774865472141e-10
  1.6850000000000001e+00   7.1767643205810929e-10
  1.6899999999999999e+00   7.1974861324130178e-10
  1.6950000000000001e+00   7.2182569290990870e-10
  1.7000000000000000e+00   7.2390911703711674e-10
  1.7050000000000001e+00   7.2600037524291636e-10
  1.7100000000000000e+00   7.2810099897545234e-10
  1.7150000000000001e+00   7.3021255949957148e-10
  1.7200000000000000e+00   7.3233666569897724e-10
  1.7250000000000001e+00   7.3447496169967616e-10
  1.7300000000000000e+00   7.3662912432362134e-10
  1.7350000000000001e+00   7.3880086038262881e-10
  1.7400000000000000e+00   7.4099190382371799e-10
  1.7450000000000001e+00   7.4320401273802630e-10
  1.7500000000000000e+00   7.4543896624633774e-10
  1.7550000000000001e+00   7.4769856127501021e-10
  1.7600000000000000e+00   7.4998460923671722e-10
  1.7650000000000001e+00   7.5229893263089950e-10
  1.7700000000000000e+00   7.5464336157917637e-10
  1.7750000000000001e+00   7.5701973031118687e-10
  1.7800000000000000e+00   7.5942987361642772e-10
  1.7850000000000001e+00   7.6187562327761673e-10
  1.7900000000000000e+00   7.6435880450094538e-10
  1.7949999999999999e+00   7.6688123235829001e-10
  1.8000000000000000e+00   7.6944470825601818e-10
  1.8049999999999999e+00   7.7205101644448918e-10
  1.8100000000000001e+00   7.7470192058169408e-10
  1.8149999999999999e+00   7.7739916036373086e-10
  1.8200000000000001e+00   7.8014444823399496e-10
  1.8250000000000000e+00   7.8293946618207168e-10
  1.8300000000000001e+00   7.8578586264236219e-10
  1.8350000000000000e+00   7.8868524950148950e-10
  1.8400000000000001e+00   7.9163919922248695e-10
  1.8450000000000000e+00   7.9464924209271997e-10
  1.8500000000000001e+00   7.9771686360141574e-10
  1.8550000000000000e+00   8.0084350195161858e-10
  1.8600000000000001e+00   8.0403054571034085e-10
  1.8650000000000000e+00   8.0727933159966902e-10
  1.8700000000000001e+00   8.1059114243061409e-10
  1.8750000000000000e+00   8.1396720518057186e-10
  1.8800000000000001e+00   8.1740868921441264e-10
  1.8850000000000000e+00   8.2091670464839592e-10
  1.8900000000000001e+00   8.2449230085540683e-10
  1.8950000000000000e+00   8.2813646510935035e-10
  1.9000000000000001e+00   8.3185012136598207e-10
  1.9050000000000000e+00   8.3563412917698241e-10
  1.9100000000000001e+00   8.3948928273370998e-10
  1.9150000000000000e+00   8.4341631003676753e-10
  1.9199999999999999e+00   8.4741587218733537e-10
  1.9250000000000000e+00   8.5148856279610417e-10
  1.9299999999999999e+00   8.5563490750563079e-10
  1.9350000000000001e+00   8.5985536362199289e-10
  1.9399999999999999e+00   8.6415031985176545e-10
  1.9450000000000001e+00   8.6852009614057218e-10
  1.9500000000000000e+00   8.7296494360973113e-10
  1.9550000000000001e+00   8.7748504458791298e-10
  1.9600000000000000e+00   8.8208051273510270e-10
  1.9650000000000001e+00   8.8675139325665914e-10
  1.9700000000000000e+00   8.9149766320575159e-10
  1.9750000000000001e+00   8.9631923187301871e-10
  1.9800000000000000e+00   9.0121594126285811e-10
  1.9850000000000001e+00   9.0618756665636255e-10
