# First column is time, second column is the perturbation of detonation velocity.
  0.0000000000000000e+00   1.0000000000000000e-10
  5.0000000000000001e-03   1.0025604297781290e-10
  1.0000000000000000e-02   1.0042816865478365e-10
  1.4999999999999999e-02   1.0063577586454105e-10
  2.0000000000000000e-02   1.0089529321000380e-10
  2.5000000000000001e-02   1.0118042258698431e-10
  2.9999999999999999e-02   1.0145766020252069e-10
  3.5000000000000003e-02   1.0170717753380421e-10
  4.0000000000000001e-02   1.0193015477913737e-10
  4.4999999999999998e-02   1.0214410280039371e-10
  5.0000000000000003e-02   1.0237101364516154e-10
  5.5000000000000000e-02   1.0262523798367267e-10
  5.9999999999999998e-02   1.0290701927274493e-10
  6.5000000000000002e-02   1.0320405935719707e-10
  7.0000000000000007e-02   1.0349924977373864e-10
  7.4999999999999997e-02   1.0377990211055762e-10
  8.0000000000000002e-02   1.0404365550427790e-10
  8.5000000000000006e-02   1.0429849380873514e-10
  8.9999999999999997e-02   1.0455756366675133e-10
  9.5000000000000001e-02   1.0483200591294361e-10
  1.0000000000000001e-01   1.0512562669719848e-10
  1.0500000000000000e-01   1.0543386142165022e-10
  1.1000000000000000e-01   1.0574704617107815e-10
  1.1500000000000000e-01   1.0605585345079103e-10
  1.2000000000000000e-01   1.0635591821174039e-10
  1.2500000000000000e-01   1.0664943549596308e-10
  1.3000000000000000e-01   1.0694328756600311e-10
  1.3500000000000001e-01   1.0724504675520586e-10
  1.4000000000000001e-01   1.0755910423823421e-10
  1.4499999999999999e-01   1.0788484642888039e-10
  1.4999999999999999e-01   1.0821754945243175e-10
  1.5500000000000000e-01   1.0855122301854429e-10
  1.6000000000000000e-01   1.0888175028707306e-10
  1.6500000000000001e-01   1.0920871728732888e-10
  1.7000000000000001e-01   1.0953517072918633e-10
  1.7500000000000002e-01   1.0986566950887164e-10
  1.7999999999999999e-01   1.1020380602473347e-10
  1.8500000000000000e-01   1.1055050007912444e-10
  1.9000000000000000e-01   1.1090382795600429e-10
  1.9500000000000001e-01   1.1126029117967929e-10
  2.0000000000000001e-01   1.1161672034864064e-10
  2.0500000000000002e-01   1.1197178656514930e-10
  2.0999999999999999e-01   1.1232641052615635e-10
  2.1500000000000000e-01   1.1268299467363361e-10
  2.2000000000000000e-01   1.1304400152958433e-10
  2.2500000000000001e-01   1.1341066680127198e-10
  2.3000000000000001e-01   1.1378247538910886e-10
  2.3500000000000001e-01   1.1415757258477668e-10
  2.3999999999999999e-01   1.1453379445039197e-10
  2.4500000000000000e-01   1.1490972878890307e-10
  2.5000000000000000e-01   1.1528527220831489e-10
  2.5500000000000000e-01   1.1566146395391354e-10
  2.6000000000000001e-01   1.1603976493335112e-10
  2.6500000000000001e-01   1.1642120810231689e-10
  2.7000000000000002e-01   1.1680586047408947e-10
  2.7500000000000002e-01   1.1719282914669449e-10
  2.8000000000000003e-01   1.1758074410140633e-10
  2.8500000000000003e-01   1.1796841987707605e-10
  2.8999999999999998e-01   1.1835534384519785e-10
  2.9499999999999998e-01   1.1874176712344121e-10
  2.9999999999999999e-01   1.1912839941782324e-10
  3.0499999999999999e-01   1.1951590712853243e-10
  3.1000000000000000e-01   1.1990448900035387e-10
  3.1500000000000000e-01   1.2029373246123122e-10
  3.2000000000000001e-01   1.2068278939691178e-10
  3.2500000000000001e-01   1.2107074571656034e-10
  3.3000000000000002e-01   1.2145697693414047e-10
  3.3500000000000002e-01   1.2184131351824459e-10
  3.4000000000000002e-01   1.2222395576760384e-10
  3.4500000000000003e-01   1.2260521043942674e-10
  3.5000000000000003e-01   1.2298520206359131e-10
  3.5499999999999998e-01   1.2336370653724521e-10
  3.5999999999999999e-01   1.2374017603012561e-10
  3.6499999999999999e-01   1.2411392038933170e-10
  3.7000000000000000e-01   1.2448433605552278e-10
  3.7500000000000000e-01   1.2485106260900019e-10
  3.8000000000000000e-01   1.2521399744101843e-10
  3.8500000000000001e-01   1.2557317825832388e-10
  3.9000000000000001e-01   1.2592860813882360e-10
  3.9500000000000002e-01   1.2628011780779622e-10
  4.0000000000000002e-01   1.2662733002751748e-10
  4.0500000000000003e-01   1.2696973225327736e-10
  4.1000000000000003e-01   1.2730680881438619e-10
  4.1500000000000004e-01   1.2763815984519998e-10
  4.1999999999999998e-01   1.2796354940515305e-10
  4.2499999999999999e-01   1.2828286744676046e-10
  4.2999999999999999e-01   1.2859603520520094e-10
  4.3500000000000000e-01   1.2890290839991431e-10
  4.4000000000000000e-01   1.2920322731005463e-10
  4.4500000000000001e-01   1.2949663353357788e-10
  4.5000000000000001e-01   1.2978273752349269e-10
  4.5500000000000002e-01   1.3006119744915341e-10
  4.6000000000000002e-01   1.3033176890241392e-10
  4.6500000000000002e-01   1.3059430431699584e-10
  4.7000000000000003e-01   1.3084870860976787e-10
  4.7500000000000003e-01   1.3109487867602951e-10
  4.7999999999999998e-01   1.3133265917610509e-10
  4.8499999999999999e-01   1.3156183505772021e-10
  4.8999999999999999e-01   1.3178216045007633e-10
  4.9500000000000000e-01   1.3199340539344421e-10
  5.0000000000000000e-01   1.3219539511471672e-10
  5.0500000000000000e-01   1.3238802325731820e-10
  5.1000000000000001e-01   1.3257123568508973e-10
  5.1500000000000001e-01   1.3274499658856730e-10
  5.2000000000000002e-01   1.3290925608010817e-10
  5.2500000000000002e-01   1.3306393544185339e-10
  5.3000000000000003e-01   1.3320893543590917e-10
  5.3500000000000003e-01   1.3334416089270973e-10
  5.4000000000000004e-01   1.3346954743238228e-10
  5.4500000000000004e-01   1.3358507675855226e-10
  5.5000000000000004e-01   1.3369077426469366e-10
  5.5500000000000005e-01   1.3378669226454775e-10
  5.6000000000000005e-01   1.3387288894300527e-10
  5.6500000000000006e-01   1.3394941405573636e-10
  5.7000000000000006e-01   1.3401630770876866e-10
  5.7500000000000007e-01   1.3407361123748664e-10
  5.7999999999999996e-01   1.3412138324534629e-10
  5.8499999999999996e-01   1.3415971207851507e-10
  5.8999999999999997e-01   1.3418871880414296e-10
  5.9499999999999997e-01   1.3420855019074480e-10
  5.9999999999999998e-01   1.3421936623062585e-10
  6.0499999999999998e-01   1.3422132891980984e-10
  6.0999999999999999e-01   1.3421459757012514e-10
  6.1499999999999999e-01   1.3419933201863130e-10
  6.2000000000000000e-01   1.3417570096904844e-10
  6.2500000000000000e-01   1.3414389044141932e-10
  6.3000000000000000e-01   1.3410410782938353e-10
  6.3500000000000001e-01   1.3405657977949181e-10
  6.4000000000000001e-01   1.3400154539697714e-10
  6.4500000000000002e-01   1.3393924843334264e-10
  6.5000000000000002e-01   1.3386993218112180e-10
  6.5500000000000003e-01   1.3379383900066599e-10
  6.6000000000000003e-01   1.3371121385438981e-10
  6.6500000000000004e-01   1.3362230928959129e-10
  6.7000000000000004e-01   1.3352738888708940e-10
  6.7500000000000004e-01   1.3342672731338728e-10
  6.8000000000000005e-01   1.3332060703597357e-10
  6.8500000000000005e-01   1.3320931342837301e-10
  6.9000000000000006e-01   1.3309313059942585e-10
  6.9500000000000006e-01   1.3297233965059791e-10
  7.0000000000000007e-01   1.3284721965739043e-10
  7.0499999999999996e-01   1.3271805028202545e-10
  7.0999999999999996e-01   1.3258511424711464e-10
  7.1499999999999997e-01   1.3244869818890572e-10
  7.1999999999999997e-01   1.3230909140523586e-10
  7.2499999999999998e-01   1.3216658313522761e-10
  7.2999999999999998e-01   1.3202145967870750e-10
  7.3499999999999999e-01   1.3187400260061897e-10
  7.3999999999999999e-01   1.3172448858712147e-10
  7.4500000000000000e-01   1.3157319063769950e-10
  7.5000000000000000e-01   1.3142037965693093e-10
  7.5500000000000000e-01   1.3126632543022932e-10
  7.6000000000000001e-01   1.3111129640569156e-10
  7.6500000000000001e-01   1.3095555837904759e-10
  7.7000000000000002e-01   1.3079937272496260e-10
  7.7500000000000002e-01   1.3064299497741265e-10
  7.8000000000000003e-01   1.3048667430039039e-10
  7.8500000000000003e-01   1.3033065388830131e-10
  7.9000000000000004e-01   1.3017517187263974e-10
  7.9500000000000004e-01   1.3002046211488355e-10
  8.0000000000000004e-01   1.2986675440209897e-10
  8.0500000000000005e-01   1.2971427392392827e-10
  8.1000000000000005e-01   1.2956324028966906e-10
  8.1500000000000006e-01   1.2941386654981906e-10
  8.2000000000000006e-01   1.2926635863546759e-10
  8.2500000000000007e-01   1.2912091537709162e-10
  8.3000000000000007e-01   1.2897772896139698e-10
  8.3499999999999996e-01   1.2883698548846401e-10
  8.3999999999999997e-01   1.2869886528733961e-10
  8.4499999999999997e-01   1.2856354281574927e-10
  8.4999999999999998e-01   1.2843118620471840e-10
  8.5499999999999998e-01   1.2830195668594545e-10
  8.5999999999999999e-01   1.2817600817700356e-10
  8.6499999999999999e-01   1.2805348719468170e-10
  8.7000000000000000e-01   1.2793453308914874e-10
  8.7500000000000000e-01   1.2781927843856642e-10
  8.8000000000000000e-01   1.2770784938893599e-10
  8.8500000000000001e-01   1.2760036578314079e-10
  8.9000000000000001e-01   1.2749694105324002e-10
  8.9500000000000002e-01   1.2739768197756096e-10
  9.0000000000000002e-01   1.2730268846549040e-10
  9.0500000000000003e-01   1.2721205350513633e-10
  9.1000000000000003e-01   1.2712586331656272e-10
  9.1500000000000004e-01   1.2704419764995724e-10
  9.2000000000000004e-01   1.2696713010685438e-10
  9.2500000000000004e-01   1.2689472836905087e-10
  9.3000000000000005e-01   1.2682705428286300e-10
  9.3500000000000005e-01   1.2676416382769095e-10
  9.4000000000000006e-01   1.2670610705462337e-10
  9.4500000000000006e-01   1.2665292808755136e-10
  9.5000000000000007e-01   1.2660466523850451e-10
  9.5500000000000007e-01   1.2656135122670662e-10
  9.5999999999999996e-01   1.2652301344086361e-10
  9.6499999999999997e-01   1.2648967417005709e-10
  9.6999999999999997e-01   1.2646135075320741e-10
  9.7499999999999998e-01   1.2643805564356712e-10
  9.7999999999999998e-01   1.2641979642730157e-10
  9.8499999999999999e-01   1.2640657585310001e-10
  9.8999999999999999e-01   1.2639839191694711e-10
  9.9500000000000000e-01   1.2639523801274225e-10
  1.0000000000000000e+00   1.2639710312459187e-10
  1.0050000000000001e+00   1.2640397201796105e-10
  1.0100000000000000e+00   1.2641582539189964e-10
  1.0150000000000001e+00   1.2643263997796819e-10
  1.0200000000000000e+00   1.2645438859941996e-10
  1.0249999999999999e+00   1.2648104022214366e-10
  1.0300000000000000e+00   1.2651256002904416e-10
  1.0349999999999999e+00   1.2654890953394289e-10
  1.0400000000000000e+00   1.2659004672937554e-10
  1.0449999999999999e+00   1.2663592624641956e-10
  1.0500000000000000e+00   1.2668649950137646e-10
  1.0549999999999999e+00   1.2674171481386483e-10
  1.0600000000000001e+00   1.2680151749723205e-10
  1.0649999999999999e+00   1.2686584993617357e-10
  1.0700000000000001e+00   1.2693465167132213e-10
  1.0750000000000000e+00   1.2700785950494632e-10
  1.0800000000000001e+00   1.2708540762980856e-10
  1.0850000000000000e+00   1.2716722777146599e-10
  1.0900000000000001e+00   1.2725324932868663e-10
  1.0950000000000000e+00   1.2734339949926187e-10
  1.1000000000000001e+00   1.2743760338703643e-10
  1.1050000000000000e+00   1.2753578409546939e-10
  1.1100000000000001e+00   1.2763786281860880e-10
  1.1150000000000000e+00   1.2774375893969189e-10
  1.1200000000000001e+00   1.2785339014173816e-10
  1.1250000000000000e+00   1.2796667252702695e-10
  1.1300000000000001e+00   1.2808352073718820e-10
  1.1350000000000000e+00   1.2820384806510315e-10
  1.1400000000000001e+00   1.2832756655365128e-10
  1.1450000000000000e+00   1.2845458708212523e-10
  1.1500000000000001e+00   1.2858481944576330e-10
  1.1550000000000000e+00   1.2871817243516199e-10
  1.1599999999999999e+00   1.2885455392007515e-10
  1.1650000000000000e+00   1.2899387093786191e-10
  1.1699999999999999e+00   1.2913602978297865e-10
  1.1750000000000000e+00   1.2928093609234038e-10
  1.1799999999999999e+00   1.2942849492262250e-10
  1.1850000000000001e+00   1.2957861081870704e-10
  1.1899999999999999e+00   1.2973118787570806e-10
  1.1950000000000001e+00   1.2988612979872649e-10
  1.2000000000000000e+00   1.3004333996400993e-10
  1.2050000000000001e+00   1.3020272148302820e-10
  1.2100000000000000e+00   1.3036417726839938e-10
  1.2150000000000001e+00   1.3052761009895930e-10
  1.2200000000000000e+00   1.3069292268125417e-10
  1.2250000000000001e+00   1.3086001770617009e-10
  1.2300000000000000e+00   1.3102879790139025e-10
  1.2350000000000001e+00   1.3119916608183168e-10
  1.2400000000000000e+00   1.3137102520047472e-10
  1.2450000000000001e+00   1.3154427840105696e-10
  1.2500000000000000e+00   1.3171882907256468e-10
  1.2550000000000001e+00   1.3189458090413964e-10
  1.2600000000000000e+00   1.3207143793855331e-10
  1.2650000000000001e+00   1.3224930462290099e-10
  1.2700000000000000e+00   1.3242808585626410e-10
  1.2750000000000001e+00   1.3260768703514766e-10
  1.2800000000000000e+00   1.3278801409799538e-10
  1.2849999999999999e+00   1.3296897356982257e-10
  1.2900000000000000e+00   1.3315047260721009e-10
  1.2949999999999999e+00   1.3333241904302761e-10
  1.3000000000000000e+00   1.3351472142974707e-10
  1.3049999999999999e+00   1.3369728908028498e-10
  1.3100000000000001e+00   1.3388003210586687e-10
  1.3149999999999999e+00   1.3406286145110671e-10
  1.3200000000000001e+00   1.3424568892698775e-10
  1.3250000000000000e+00   1.3442842724249226e-10
  1.3300000000000001e+00   1.3461099003529316e-10
  1.3350000000000000e+00   1.3479329190140751e-10
  1.3400000000000001e+00   1.3497524842331162e-10
  1.3450000000000000e+00   1.3515677619592262e-10
  1.3500000000000001e+00   1.3533779285008259e-10
  1.3550000000000000e+00   1.3551821707359435e-10
  1.3600000000000001e+00   1.3569796863023028e-10
  1.3650000000000000e+00   1.3587696837728975e-10
  1.3700000000000001e+00   1.3605513828217898e-10
  1.3750000000000000e+00   1.3623240143820034e-10
  1.3800000000000001e+00   1.3640868207945163e-10
  1.3850000000000000e+00   1.3658390559457728e-10
  1.3900000000000001e+00   1.3675799853916113e-10
  1.3950000000000000e+00   1.3693088864674549e-10
  1.4000000000000001e+00   1.3710250483869028e-10
  1.4050000000000000e+00   1.3727277723322906e-10
  1.4099999999999999e+00   1.3744163715406353e-10
  1.4150000000000000e+00   1.3760901713869234e-10
  1.4199999999999999e+00   1.3777485094647360e-10
  1.4250000000000000e+00   1.3793907356627155e-10
  1.4299999999999999e+00   1.3810162122349884e-10
  1.4350000000000001e+00   1.3826243138643889e-10
  1.4399999999999999e+00   1.3842144277186233e-10
  1.4450000000000001e+00   1.3857859535005562e-10
  1.4500000000000000e+00   1.3873383034941329e-10
  1.4550000000000001e+00   1.3888709026068616e-10
  1.4600000000000000e+00   1.3903831884087021e-10
  1.4650000000000001e+00   1.3918746111661679e-10
  1.4700000000000000e+00   1.3933446338699650e-10
  1.4750000000000001e+00   1.3947927322547396e-10
  1.4800000000000000e+00   1.3962183948102410e-10
  1.4850000000000001e+00   1.3976211227840611e-10
  1.4900000000000000e+00   1.3990004301766006e-10
  1.4950000000000001e+00   1.4003558437289348e-10
  1.5000000000000000e+00   1.4016869029037824e-10
  1.5050000000000001e+00   1.4029931598592613e-10
  1.5100000000000000e+00   1.4042741794147431e-10
  1.5150000000000001e+00   1.4055295390081839e-10
  1.5200000000000000e+00   1.4067588286447194e-10
  1.5250000000000001e+00   1.4079616508368938e-10
  1.5300000000000000e+00   1.4091376205373590e-10
  1.5350000000000001e+00   1.4102863650650393e-10
  1.5400000000000000e+00   1.4114075240256527e-10
  1.5449999999999999e+00   1.4125007492271166e-10
  1.5500000000000000e+00   1.4135657045901326e-10
  1.5549999999999999e+00   1.4146020660540922e-10
  1.5600000000000001e+00   1.4156095214785919e-10
  1.5649999999999999e+00   1.4165877705411115e-10
  1.5700000000000001e+00   1.4175365246316540e-10
  1.5750000000000000e+00   1.4184555067452718e-10
  1.5800000000000001e+00   1.4193444513733214e-10
  1.5850000000000000e+00   1.4202031043940444e-10
  1.5900000000000001e+00   1.4210312229628163e-10
  1.5950000000000000e+00   1.4218285754021939e-10
  1.6000000000000001e+00   1.4225949410918387e-10
  1.6050000000000000e+00   1.4233301103584564e-10
  1.6100000000000001e+00   1.4240338843659716e-10
  1.6150000000000000e+00   1.4247060750062622e-10
  1.6200000000000001e+00   1.4253465047906890e-10
  1.6250000000000000e+00   1.4259550067425450e-10
  1.6300000000000001e+00   1.4265314242903779e-10
  1.6350000000000000e+00   1.4270756111619654e-10
  1.6400000000000001e+00   1.4275874312786662e-10
  1.6450000000000000e+00   1.4280667586499008e-10
  1.6500000000000001e+00   1.4285134772675676e-10
  1.6550000000000000e+00   1.4289274810003126e-10
  1.6600000000000001e+00   1.4293086734875990e-10
  1.6650000000000000e+00   1.4296569680335096e-10
  1.6699999999999999e+00   1.4299722875001779e-10
  1.6750000000000000e+00   1.4302545642006724e-10
  1.6799999999999999e+00   1.4305037397911685e-10
  1.6850000000000001e+00   1.4307197651622606e-10
  1.6899999999999999e+00   1.4309026003293734e-10
  1.6950000000000001e+00   1.4310522143222964e-10
  1.7000000000000000e+00   1.4311685850739810e-10
  1.7050000000000001e+00   1.4312516993087377e-10
  1.7100000000000000e+00   1.4313015524300035e-10
  1.7150000000000001e+00   1.4313181484078228e-10
  1.7200000000000000e+00   1.4313014996661726e-10
  1.7250000000000001e+00   1.4312516269702745e-10
  1.7300000000000000e+00   1.4311685593140707e-10
  1.7350000000000001e+00   1.4310523338080887e-10
  1.7400000000000000e+00   1.4309029955679292e-10
  1.7450000000000001e+00   1.4307205976036557e-10
  1.7500000000000000e+00   1.4305052007102936e-10
  1.7550000000000001e+00   1.4302568733596555e-10
  1.7600000000000000e+00   1.4299756915936310e-10
  1.7650000000000001e+00   1.4296617389190497e-10
  1.7700000000000000e+00   1.4293151062041978e-10
  1.7750000000000001e+00   1.4289358915770685e-10
  1.7800000000000000e+00   1.4285242003253816e-10
  1.7850000000000001e+00   1.4280801447984300e-10
  1.7900000000000000e+00   1.4276038443107292e-10
  1.7949999999999999e+00   1.4270954250474364e-10
  1.8000000000000000e+00   1.4265550199714439e-10
  1.8049999999999999e+00   1.4259827687320149e-10
  1.8100000000000001e+00   1.4253788175747970e-10
  1.8149999999999999e+00   1.4247433192530468e-10
  1.8200000000000001e+00   1.4240764329398854e-10
  1.8250000000000000e+00   1.4233783241414052e-10
  1.8300000000000001e+00   1.4226491646104426e-10
  1.8350000000000000e+00   1.4218891322608243e-10
  1.8400000000000001e+00   1.4210984110818948e-10
  1.8450000000000000e+00   1.4202771910531142e-10
  1.8500000000000001e+00   1.4194256680585408e-10
  1.8550000000000000e+00   1.4185440438010067e-10
  1.8600000000000001e+00   1.4176325257158457e-10
  1.8650000000000000e+00   1.4166913268840158e-10
  1.8700000000000001e+00   1.4157206659445275e-10
  1.8750000000000000e+00   1.4147207670060713e-10
  1.8800000000000001e+00   1.4136918595577831e-10
  1.8850000000000000e+00   1.4126341783790732e-10
  1.8900000000000001e+00   1.4115479634484808e-10
  1.8950000000000000e+00   1.4104334598515225e-10
  1.9000000000000001e+00   1.4092909176875289e-10
  1.9050000000000000e+00   1.4081205919754775e-10
  1.9100000000000001e+00   1.4069227425588286e-10
  1.9150000000000000e+00   1.4056976340094102e-10
  1.9199999999999999e+00   1.4044455355303783e-10
  1.9250000000000000e+00   1.4031667208582808e-10
  1.9299999999999999e+00   1.4018614681642594e-10
  1.9350000000000001e+00   1.4005300599544039e-10
  1.9399999999999999e+00   1.3991727829692813e-10
  1.9450000000000001e+00   1.3977899280826632e-10
  1.9500000000000000e+00   1.3963817901994406e-10
  1.9550000000000001e+00   1.3949486681527397e-10
  1.9600000000000000e+00   1.3934908646002181e-10
  1.9650000000000001e+00   1.3920086859195149e-10
  1.9700000000000000e+00   1.3905024421028217e-10
  1.9750000000000001e+00   1.3889724466505165e-10
  1.9800000000000000e+00   1.3874190164638068e-10
  1.9850000000000001e+00   1.3858424717363134e-10
