# First column is time, second column is the perturbation of detonation velocity.
  0.0000000000000000e+00   1.0000000000000000e-10
  1.0000000000000000e-02   1.0009588687422926e-10
  2.0000000000000000e-02   1.0017897922130690e-10
  2.9999999999999999e-02   1.0025161626779577e-10
  4.0000000000000001e-02   1.0031583155408391e-10
  5.0000000000000003e-02   1.0037338951623472e-10
  5.9999999999999998e-02   1.0042581729627715e-10
  7.0000000000000007e-02   1.0047443243873744e-10
  8.0000000000000002e-02   1.0052036704334723e-10
  8.9999999999999997e-02   1.0056458886754779e-10
  1.0000000000000001e-01   1.0060791980605845e-10
  1.1000000000000000e-01   1.0065105211703286e-10
  1.2000000000000000e-01   1.0069456271402497e-10
  1.3000000000000000e-01   1.0073892579913302e-10
  1.4000000000000001e-01   1.0078452407442913e-10
  1.4999999999999999e-01   1.0083165873538351e-10
  1.6000000000000000e-01   1.0088055842082748e-10
  1.7000000000000001e-01   1.0093138726852799e-10
  1.7999999999999999e-01   1.0098425220320601e-10
  1.9000000000000000e-01   1.0103920956442220e-10
  2.0000000000000001e-01   1.0109627116483197e-10
  2.0999999999999999e-01   1.0115540985458216e-10
  2.2000000000000000e-01   1.0121656465482578e-10
  2.3000000000000001e-01   1.0127964551224843e-10
  2.3999999999999999e-01   1.0134453771693438e-10
  2.5000000000000000e-01   1.0141110601768575e-10
  2.6000000000000001e-01   1.0147919846189469e-10
  2.7000000000000002e-01   1.0154864998112662e-10
  2.8000000000000003e-01   1.0161928573858745e-10
  2.8999999999999998e-01   1.0169092425051612e-10
  2.9999999999999999e-01   1.0176338029017507e-10
  3.1000000000000000e-01   1.0183646758042154e-10
  3.2000000000000001e-01   1.0191000127875906e-10
  3.3000000000000002e-01   1.0198380025722076e-10
  3.4000000000000002e-01   1.0205768917836376e-10
  3.5000000000000003e-01   1.0213150036799857e-10
  3.5999999999999999e-01   1.0220507548498526e-10
  3.7000000000000000e-01   1.0227826698845143e-10
  3.8000000000000000e-01   1.0235093940307751e-10
  3.9000000000000001e-01   1.0242297038361131e-10
  4.0000000000000002e-01   1.0249425158047466e-10
  4.1000000000000003e-01   1.0256468930917338e-10
  4.1999999999999998e-01   1.0263420502718209e-10
  4.2999999999999999e-01   1.0270273562301489e-10
  4.4000000000000000e-01   1.0277023352328151e-10
  4.5000000000000001e-01   1.0283666662463748e-10
  4.6000000000000002e-01   1.0290201805864070e-10
  4.7000000000000003e-01   1.0296628579860185e-10
  4.7999999999999998e-01   1.0302948211854111e-10
  4.8999999999999999e-01   1.0309163291531915e-10
  5.0000000000000000e-01   1.0315277690588046e-10
  5.1000000000000001e-01   1.0321296471231647e-10
  5.2000000000000002e-01   1.0327225784811279e-10
  5.3000000000000003e-01   1.0333072761947952e-10
  5.4000000000000004e-01   1.0338845395606748e-10
  5.5000000000000004e-01   1.0344552418564169e-10
  5.6000000000000005e-01   1.0350203176741246e-10
  5.7000000000000006e-01   1.0355807499871293e-10
  5.7999999999999996e-01   1.0361375570955988e-10
  5.8999999999999997e-01   1.0366917795934553e-10
  5.9999999999999998e-01   1.0372444674948460e-10
  6.0999999999999999e-01   1.0377966676529050e-10
  6.2000000000000000e-01   1.0383494115968278e-10
  6.3000000000000000e-01   1.0389037039054528e-10
  6.4000000000000001e-01   1.0394605112266881e-10
  6.5000000000000002e-01   1.0400207520423630e-10
  6.6000000000000003e-01   1.0405852872675258e-10
  6.7000000000000004e-01   1.0411549117619841e-10
  6.8000000000000005e-01   1.0417303468201258e-10
  6.9000000000000006e-01   1.0423122336928848e-10
  7.0000000000000007e-01   1.0429011281832907e-10
  7.0999999999999996e-01   1.0434974963444695e-10
  7.1999999999999997e-01   1.0441017112964071e-10
  7.2999999999999998e-01   1.0447140511653626e-10
  7.3999999999999999e-01   1.0453346981376641e-10
  7.5000000000000000e-01   1.0459637386078557e-10
  7.6000000000000001e-01   1.0466011643899025e-10
  7.7000000000000002e-01   1.0472468749495174e-10
  7.8000000000000003e-01   1.0479006806057464e-10
  7.9000000000000004e-01   1.0485623066408208e-10
  8.0000000000000004e-01   1.0492313982490444e-10
  8.1000000000000005e-01   1.0499075262481933e-10
  8.2000000000000006e-01   1.0505901934706196e-10
  8.3000000000000007e-01   1.0512788417460180e-10
  8.3999999999999997e-01   1.0519728593836608e-10
  8.4999999999999998e-01   1.0526715890588535e-10
  8.5999999999999999e-01   1.0533743360064193e-10
  8.7000000000000000e-01   1.0540803764231731e-10
  8.8000000000000000e-01   1.0547889659815865e-10
  8.9000000000000001e-01   1.0554993483581361e-10
  9.0000000000000002e-01   1.0562107636821359e-10
  9.1000000000000003e-01   1.0569224568141251e-10
  9.2000000000000004e-01   1.0576336853670646e-10
  9.3000000000000005e-01   1.0583437273886043e-10
  9.4000000000000006e-01   1.0590518886284746e-10
  9.5000000000000007e-01   1.0597575093215032e-10
  9.5999999999999996e-01   1.0604599704238265e-10
  9.6999999999999997e-01   1.0611586992474184e-10
  9.7999999999999998e-01   1.0618531744460294e-10
  9.8999999999999999e-01   1.0625429303139101e-10
  1.0000000000000000e+00   1.0632275603671883e-10
