# ZND solution.
# Columns are: spatial coordinate; specific volume; density;
# flow velocity in lab frame; pressure; reaction progress variable.
 -1.5074999999999999e+01   5.5721746169784858e-01   1.7946314836455186e+00   3.0151164610293830e+00   2.1531359046879963e+01   9.9999999999900002e-01
 -1.5049999999999999e+01   5.5721746169784858e-01   1.7946314836455186e+00   3.0151164610293830e+00   2.1531359046879963e+01   9.9999999999900002e-01
 -1.5024999999999999e+01   5.5721746169784858e-01   1.7946314836455186e+00   3.0151164610293830e+00   2.1531359046879963e+01   9.9999999999900002e-01
 -1.5000000000000000e+01   5.5721746169784858e-01   1.7946314836455186e+00   3.0151164610293830e+00   2.1531359046879963e+01   9.9999999999900002e-01
 -1.4975000000000000e+01   5.5721746169784858e-01   1.7946314836455186e+00   3.0151164610293830e+00   2.1531359046879963e+01   9.9999999999900002e-01
 -1.4949999999999999e+01   5.5721746169784858e-01   1.7946314836455186e+00   3.0151164610293830e+00   2.1531359046879963e+01   9.9999999999900002e-01
 -1.4924999999999999e+01   5.5721746169784858e-01   1.7946314836455186e+00   3.0151164610293830e+00   2.1531359046879963e+01   9.9999999999900002e-01
 -1.4899999999999999e+01   5.5721746169784858e-01   1.7946314836455186e+00   3.0151164610293830e+00   2.1531359046879963e+01   9.9999999999900002e-01
 -1.4875000000000000e+01   5.5721746169784858e-01   1.7946314836455186e+00   3.0151164610293830e+00   2.1531359046879963e+01   9.9999999999900002e-01
 -1.4850000000000000e+01   5.5721745647388810e-01   1.7946315004703397e+00   3.0151164966018094e+00   2.1531359289109499e+01   9.9999999999897615e-01
 -1.4824999999999999e+01   5.5721744579106514e-01   1.7946315348765320e+00   3.0151165693462212e+00   2.1531359784460726e+01   9.9999999999892664e-01
 -1.4799999999999999e+01   5.5721743487407815e-01   1.7946315700368982e+00   3.0151166436851673e+00   2.1531360290669891e+01   9.9999999999887490e-01
 -1.4774999999999999e+01   5.5721742359549653e-01   1.7946316063618548e+00   3.0151167204863825e+00   2.1531360813645819e+01   9.9999999999882050e-01
 -1.4750000000000000e+01   5.5721741215516696e-01   1.7946316432077547e+00   3.0151167983890166e+00   2.1531361344121830e+01   9.9999999999876354e-01
 -1.4725000000000000e+01   5.5721740049570556e-01   1.7946316807594147e+00   3.0151168777838233e+00   2.1531361884758752e+01   9.9999999999870415e-01
 -1.4699999999999999e+01   5.5721738839814516e-01   1.7946317197220631e+00   3.0151169601618539e+00   2.1531362445709860e+01   9.9999999999864131e-01
 -1.4674999999999999e+01   5.5721737605561839e-01   1.7946317594736771e+00   3.0151170442079769e+00   2.1531363018019803e+01   9.9999999999857569e-01
 -1.4649999999999999e+01   5.5721736351674989e-01   1.7946317998576513e+00   3.0151171295910837e+00   2.1531363599433902e+01   9.9999999999850697e-01
 -1.4625000000000000e+01   5.5721735057702471e-01   1.7946318415326679e+00   3.0151172177038141e+00   2.1531364199435306e+01   9.9999999999843481e-01
 -1.4600000000000000e+01   5.5721733738543022e-01   1.7946318840188826e+00   3.0151173075316420e+00   2.1531364811115619e+01   9.9999999999835920e-01
 -1.4574999999999999e+01   5.5721732384039135e-01   1.7946319276434390e+00   3.0151173997662406e+00   2.1531365439184778e+01   9.9999999999828015e-01
 -1.4549999999999999e+01   5.5721730996606489e-01   1.7946319723285356e+00   3.0151174942431145e+00   2.1531366082522656e+01   9.9999999999819711e-01
 -1.4524999999999999e+01   5.5721729575665213e-01   1.7946320180928481e+00   3.0151175910017503e+00   2.1531366741398131e+01   9.9999999999810996e-01
 -1.4500000000000000e+01   5.5721728129038128e-01   1.7946320646844269e+00   3.0151176895094545e+00   2.1531367412183844e+01   9.9999999999801870e-01
 -1.4475000000000000e+01   5.5721726636861246e-01   1.7946321127430322e+00   3.0151177911188607e+00   2.1531368104090518e+01   9.9999999999792311e-01
 -1.4449999999999999e+01   5.5721725118081966e-01   1.7946321616584251e+00   3.0151178945397503e+00   2.1531368808332441e+01   9.9999999999782285e-01
 -1.4424999999999999e+01   5.5721723561627523e-01   1.7946322117872262e+00   3.0151180005261211e+00   2.1531369530043943e+01   9.9999999999771783e-01
 -1.4399999999999999e+01   5.5721721962516491e-01   1.7946322632898730e+00   3.0151181094171808e+00   2.1531370271534854e+01   9.9999999999760758e-01
 -1.4375000000000000e+01   5.5721720328582736e-01   1.7946323159140602e+00   3.0151182206794855e+00   2.1531371029172693e+01   9.9999999999749212e-01
 -1.4350000000000000e+01   5.5721718659803077e-01   1.7946323696605342e+00   3.0151183343146131e+00   2.1531371802968213e+01   9.9999999999737110e-01
 -1.4324999999999999e+01   5.5721716946825806e-01   1.7946324248304864e+00   3.0151184509593656e+00   2.1531372597257697e+01   9.9999999999724420e-01
 -1.4299999999999999e+01   5.5721715190378673e-01   1.7946324814004782e+00   3.0151185705641876e+00   2.1531373411703697e+01   9.9999999999711120e-01
 -1.4274999999999999e+01   5.5721713397907879e-01   1.7946325391306899e+00   3.0151186926220315e+00   2.1531374242853488e+01   9.9999999999697164e-01
 -1.4250000000000000e+01   5.5721711556574949e-01   1.7946325984346112e+00   3.0151188180071302e+00   2.1531375096660138e+01   9.9999999999682543e-01
 -1.4225000000000000e+01   5.5721709678256237e-01   1.7946326589297397e+00   3.0151189459107663e+00   2.1531375967616700e+01   9.9999999999667222e-01
 -1.4199999999999999e+01   5.5721707748797811e-01   1.7946327210719324e+00   3.0151190772967484e+00   2.1531376862286212e+01   9.9999999999651146e-01
 -1.4174999999999999e+01   5.5721705779837516e-01   1.7946327844863690e+00   3.0151192113726002e+00   2.1531377775272325e+01   9.9999999999634315e-01
 -1.4149999999999999e+01   5.5721703760148744e-01   1.7946328495346255e+00   3.0151193489027945e+00   2.1531378711780693e+01   9.9999999999616662e-01
 -1.4125000000000000e+01   5.5721701689310732e-01   1.7946329162302541e+00   3.0151194899159837e+00   2.1531379672006427e+01   9.9999999999598144e-01
 -1.4100000000000000e+01   5.5721699570819960e-01   1.7946329844606439e+00   3.0151196341740754e+00   2.1531380654328242e+01   9.9999999999578737e-01
 -1.4074999999999999e+01   5.5721697400521852e-01   1.7946330543596014e+00   3.0151197819599744e+00   2.1531381660672572e+01   9.9999999999558398e-01
 -1.4049999999999999e+01   5.5721695181956998e-01   1.7946331258130956e+00   3.0151199330325853e+00   2.1531382689397685e+01   9.9999999999537081e-01
 -1.4024999999999999e+01   5.5721692907816522e-01   1.7946331990565241e+00   3.0151200878896041e+00   2.1531383743892626e+01   9.9999999999514722e-01
 -1.4000000000000000e+01   5.5721690583622840e-01   1.7946332739120265e+00   3.0151202461549831e+00   2.1531384821596710e+01   9.9999999999491307e-01
 -1.3975000000000000e+01   5.5721688202674857e-01   1.7946333505954259e+00   3.0151204082850320e+00   2.1531385925617162e+01   9.9999999999466738e-01
 -1.3949999999999999e+01   5.5721685760612927e-01   1.7946334292471344e+00   3.0151205745766196e+00   2.1531387057975511e+01   9.9999999999441003e-01
 -1.3924999999999999e+01   5.5721683263222010e-01   1.7946335096808357e+00   3.0151207446358206e+00   2.1531388215989324e+01   9.9999999999414002e-01
 -1.3899999999999999e+01   5.5721680709567745e-01   1.7946335919266234e+00   3.0151209185262600e+00   2.1531389400091857e+01   9.9999999999385725e-01
 -1.3875000000000000e+01   5.5721678089680082e-01   1.7946336763056041e+00   3.0151210969268454e+00   2.1531390614906122e+01   9.9999999999356071e-01
 -1.3850000000000000e+01   5.5721675411080485e-01   1.7946337625755342e+00   3.0151212793254056e+00   2.1531391856944488e+01   9.9999999999324984e-01
 -1.3824999999999999e+01   5.5721672667530953e-01   1.7946338509373221e+00   3.0151214661467147e+00   2.1531393129099452e+01   9.9999999999292399e-01
 -1.3799999999999999e+01   5.5721669856318168e-01   1.7946339414783565e+00   3.0151216575755364e+00   2.1531394432629156e+01   9.9999999999258238e-01
 -1.3774999999999999e+01   5.5721666980667883e-01   1.7946340340947458e+00   3.0151218533922126e+00   2.1531395766037846e+01   9.9999999999222422e-01
 -1.3750000000000000e+01   5.5721664036796870e-01   1.7946341289083376e+00   3.0151220538543626e+00   2.1531397131079771e+01   9.9999999999184896e-01
 -1.3725000000000000e+01   5.5721661020038371e-01   1.7946342260694357e+00   3.0151222592797673e+00   2.1531398529918853e+01   9.9999999999145539e-01
 -1.3699999999999999e+01   5.5721657932768964e-01   1.7946343255014976e+00   3.0151224695065943e+00   2.1531399961453097e+01   9.9999999999104283e-01
 -1.3674999999999999e+01   5.5721654772179829e-01   1.7946344272949883e+00   3.0151226847261094e+00   2.1531401426984925e+01   9.9999999999061040e-01
 -1.3649999999999999e+01   5.5721651532108818e-01   1.7946345316483738e+00   3.0151229053579232e+00   2.1531402929371662e+01   9.9999999999015698e-01
 -1.3625000000000000e+01   5.5721648224046794e-01   1.7946346381915672e+00   3.0151231306195672e+00   2.1531404463285114e+01   9.9999999998968203e-01
 -1.3600000000000000e+01   5.5721644826586914e-01   1.7946347476140223e+00   3.0151233619687359e+00   2.1531406038651408e+01   9.9999999998918387e-01
 -1.3574999999999999e+01   5.5721641357400042e-01   1.7946348593466124e+00   3.0151235982021358e+00   2.1531407647276751e+01   9.9999999998866174e-01
 -1.3549999999999999e+01   5.5721637798793533e-01   1.7946349739591676e+00   3.0151238405245433e+00   2.1531409297365038e+01   9.9999999998811429e-01
 -1.3524999999999999e+01   5.5721634155772426e-01   1.7946350912904911e+00   3.0151240885951411e+00   2.1531410986595482e+01   9.9999999998754041e-01
 -1.3500000000000000e+01   5.5721630429793667e-01   1.7946352112936601e+00   3.0151243423147194e+00   2.1531412714292511e+01   9.9999999998693889e-01
 -1.3475000000000000e+01   5.5721626610736830e-01   1.7946353342946257e+00   3.0151246023724259e+00   2.1531414485148865e+01   9.9999999998630829e-01
 -1.3449999999999999e+01   5.5721622703931650e-01   1.7946354601217334e+00   3.0151248684053336e+00   2.1531416296693202e+01   9.9999999998564726e-01
 -1.3424999999999999e+01   5.5721618702319953e-01   1.7946355890023082e+00   3.0151251408940669e+00   2.1531418152198317e+01   9.9999999998495437e-01
 -1.3399999999999999e+01   5.5721614605512948e-01   1.7946357209488732e+00   3.0151254198651003e+00   2.1531420051844492e+01   9.9999999998422806e-01
 -1.3375000000000000e+01   5.5721610409478484e-01   1.7946358560912945e+00   3.0151257055930025e+00   2.1531421997501393e+01   9.9999999998346667e-01
 -1.3350000000000000e+01   5.5721606114447553e-01   1.7946359944221331e+00   3.0151259980620444e+00   2.1531423989061913e+01   9.9999999998266831e-01
 -1.3324999999999999e+01   5.5721601717133196e-01   1.7946361360472549e+00   3.0151262974960500e+00   2.1531426028050177e+01   9.9999999998183153e-01
 -1.3299999999999999e+01   5.5721597214706620e-01   1.7946362810577685e+00   3.0151266040876452e+00   2.1531428115777867e+01   9.9999999998095435e-01
 -1.3274999999999999e+01   5.5721592604761139e-01   1.7946364295311883e+00   3.0151269180007132e+00   2.1531430253360941e+01   9.9999999998003497e-01
 -1.3250000000000000e+01   5.5721587886979551e-01   1.7946365814777323e+00   3.0151272392568536e+00   2.1531432440946478e+01   9.9999999997907107e-01
 -1.3225000000000000e+01   5.5721583053761792e-01   1.7946367371421790e+00   3.0151275683735905e+00   2.1531434682058549e+01   9.9999999997806066e-01
 -1.3199999999999999e+01   5.5721578106496783e-01   1.7946368964797972e+00   3.0151279052563460e+00   2.1531436976053126e+01   9.9999999997700151e-01
 -1.3174999999999999e+01   5.5721573042663952e-01   1.7946370595717693e+00   3.0151282500767582e+00   2.1531439324098972e+01   9.9999999997589128e-01
 -1.3149999999999999e+01   5.5721567853958121e-01   1.7946372266855841e+00   3.0151286034003655e+00   2.1531441730047113e+01   9.9999999997472733e-01
 -1.3125000000000000e+01   5.5721562543614300e-01   1.7946373977170533e+00   3.0151289650068804e+00   2.1531444192397505e+01   9.9999999997350697e-01
 -1.3100000000000000e+01   5.5721557108118702e-01   1.7946375727793484e+00   3.0151293351355744e+00   2.1531446712779452e+01   9.9999999997222810e-01
 -1.3074999999999999e+01   5.5721551542306091e-01   1.7946377520388299e+00   3.0151297141381721e+00   2.1531449293588025e+01   9.9999999997088729e-01
 -1.3049999999999999e+01   5.5721545842388831e-01   1.7946379356174895e+00   3.0151301022725918e+00   2.1531451936579511e+01   9.9999999996948197e-01
 -1.3024999999999999e+01   5.5721540007888359e-01   1.7946381235307431e+00   3.0151304995714212e+00   2.1531454641975809e+01   9.9999999996800859e-01
 -1.3000000000000000e+01   5.5721534033875797e-01   1.7946383159373394e+00   3.0151309063702909e+00   2.1531457412062394e+01   9.9999999996646405e-01
 -1.2975000000000000e+01   5.5721527917401215e-01   1.7946385129322899e+00   3.0151313228700758e+00   2.1531460248207111e+01   9.9999999996484501e-01
 -1.2949999999999999e+01   5.5721521654724127e-01   1.7946387146360692e+00   3.0151317493254832e+00   2.1531463152144390e+01   9.9999999996314781e-01
 -1.2924999999999999e+01   5.5721515242047359e-01   1.7946389211709766e+00   3.0151321859950806e+00   2.1531466125634935e+01   9.9999999996136857e-01
 -1.2899999999999999e+01   5.5721508676766629e-01   1.7946391326208926e+00   3.0151326330562065e+00   2.1531469169886329e+01   9.9999999995950317e-01
 -1.2875000000000000e+01   5.5721501954364416e-01   1.7946393491313177e+00   3.0151330908164797e+00   2.1531472286993296e+01   9.9999999995754807e-01
 -1.2850000000000000e+01   5.5721495072147476e-01   1.7946395707889977e+00   3.0151335594592963e+00   2.1531475478204666e+01   9.9999999995549849e-01
 -1.2824999999999999e+01   5.5721488026778421e-01   1.7946397977014250e+00   3.0151340392119144e+00   2.1531478745067950e+01   9.9999999995334998e-01
 -1.2799999999999999e+01   5.5721480811581492e-01   1.7946400300836116e+00   3.0151345305289188e+00   2.1531482090678626e+01   9.9999999995109778e-01
 -1.2774999999999999e+01   5.5721473425103973e-01   1.7946402679823501e+00   3.0151350335092317e+00   2.1531485515710305e+01   9.9999999994873656e-01
 -1.2750000000000000e+01   5.5721465861515873e-01   1.7946405115854136e+00   3.0151355485498446e+00   2.1531489022866289e+01   9.9999999994626143e-01
 -1.2725000000000000e+01   5.5721458117869560e-01   1.7946407609877417e+00   3.0151360758514754e+00   2.1531492613513368e+01   9.9999999994366706e-01
 -1.2699999999999999e+01   5.5721450191768462e-01   1.7946410162665267e+00   3.0151366155773189e+00   2.1531496288762806e+01   9.9999999994094735e-01
 -1.2674999999999999e+01   5.5721442072907579e-01   1.7946412777536707e+00   3.0151371684290909e+00   2.1531500053392922e+01   9.9999999993809585e-01
 -1.2649999999999999e+01   5.5721433761885908e-01   1.7946415454298870e+00   3.0151377343660029e+00   2.1531503907125966e+01   9.9999999993510713e-01
 -1.2625000000000000e+01   5.5721425253416468e-01   1.7946418194654608e+00   3.0151383137480710e+00   2.1531507852413458e+01   9.9999999993197419e-01
 -1.2600000000000000e+01   5.5721416541617852e-01   1.7946421000498229e+00   3.0151389069757877e+00   2.1531511891982543e+01   9.9999999992869004e-01
 -1.2574999999999999e+01   5.5721407622812535e-01   1.7946423873014230e+00   3.0151395142995727e+00   2.1531516027538451e+01   9.9999999992524724e-01
 -1.2549999999999999e+01   5.5721398489584473e-01   1.7946426814591194e+00   3.0151401362244208e+00   2.1531520262519926e+01   9.9999999992163813e-01
 -1.2524999999999999e+01   5.5721389139394006e-01   1.7946429826047143e+00   3.0151407729232682e+00   2.1531524598104575e+01   9.9999999991785471e-01
 -1.2500000000000000e+01   5.5721379565659390e-01   1.7946432909501966e+00   3.0151414248442978e+00   2.1531529037344288e+01   9.9999999991388888e-01
 -1.2475000000000000e+01   5.5721369763976591e-01   1.7946436066374158e+00   3.0151420922874013e+00   2.1531533582281167e+01   9.9999999990973143e-01
 -1.2449999999999999e+01   5.5721359727898623e-01   1.7946439298740211e+00   3.0151427756915847e+00   2.1531538235904613e+01   9.9999999990537314e-01
 -1.2424999999999999e+01   5.5721349453104863e-01   1.7946442607991770e+00   3.0151434753510591e+00   2.1531543000218054e+01   9.9999999990080468e-01
 -1.2399999999999999e+01   5.5721338932988251e-01   1.7946445996256888e+00   3.0151441917157307e+00   2.1531547878285110e+01   9.9999999989601573e-01
 -1.2375000000000000e+01   5.5721328162299577e-01   1.7946449465226293e+00   3.0151449251430433e+00   2.1531552872539791e+01   9.9999999989099553e-01
 -1.2350000000000000e+01   5.5721317134110870e-01   1.7946453017131407e+00   3.0151456761047553e+00   2.1531557986194517e+01   9.9999999988573285e-01
 -1.2324999999999999e+01   5.5721305843950664e-01   1.7946456653412479e+00   3.0151464449053504e+00   2.1531563221322664e+01   9.9999999988021626e-01
 -1.2299999999999999e+01   5.5721294283996181e-01   1.7946460376589133e+00   3.0151472320775179e+00   2.1531568581551568e+01   9.9999999987443322e-01
 -1.2274999999999999e+01   5.5721282447897669e-01   1.7946464188706579e+00   3.0151480380536433e+00   2.1531574069825545e+01   9.9999999986837085e-01
 -1.2250000000000000e+01   5.5721270328659611e-01   1.7946468092018018e+00   3.0151488633100842e+00   2.1531579689388341e+01   9.9999999986201582e-01
 -1.2225000000000000e+01   5.5721257921662248e-01   1.7946472088011478e+00   3.0151497081614220e+00   2.1531585442382092e+01   9.9999999985535415e-01
 -1.2199999999999999e+01   5.5721245217783033e-01   1.7946476179625239e+00   3.0151505732288539e+00   2.1531591333036825e+01   9.9999999984837062e-01
 -1.2174999999999999e+01   5.5721232210737726e-01   1.7946480368883437e+00   3.0151514589403043e+00   2.1531597364266474e+01   9.9999999984105004e-01
 -1.2149999999999999e+01   5.5721218893480584e-01   1.7946484658055473e+00   3.0151523657755508e+00   2.1531603539338079e+01   9.9999999983337584e-01
 -1.2125000000000000e+01   5.5721205258915063e-01   1.7946489049427119e+00   3.0151532942178307e+00   2.1531609861542229e+01   9.9999999982533117e-01
 -1.2100000000000000e+01   5.5721191299648942e-01   1.7946493545379392e+00   3.0151542447705157e+00   2.1531616334306623e+01   9.9999999981689847e-01
 -1.2074999999999999e+01   5.5721177005818112e-01   1.7946498149089443e+00   3.0151552181052996e+00   2.1531622962205141e+01   9.9999999980805809e-01
 -1.2049999999999999e+01   5.5721162372273803e-01   1.7946502862215743e+00   3.0151562145727868e+00   2.1531629747625214e+01   9.9999999979879128e-01
 -1.2024999999999999e+01   5.5721147389240244e-01   1.7946507687907016e+00   3.0151572348386559e+00   2.1531636695099763e+01   9.9999999978907694e-01
 -1.2000000000000000e+01   5.5721132049163213e-01   1.7946512628596485e+00   3.0151582794173093e+00   2.1531643808131602e+01   9.9999999977889376e-01
 -1.1975000000000000e+01   5.5721116342411647e-01   1.7946517687386292e+00   3.0151593489645725e+00   2.1531651091186557e+01   9.9999999976821874e-01
 -1.1949999999999999e+01   5.5721100261804390e-01   1.7946522866589525e+00   3.0151604439694437e+00   2.1531658547594446e+01   9.9999999975702869e-01
 -1.1924999999999999e+01   5.5721083797253346e-01   1.7946528169455542e+00   3.0151615651188703e+00   2.1531666182033021e+01   9.9999999974529796e-01
 -1.1899999999999999e+01   5.5721066938998243e-01   1.7946533599128138e+00   3.0151627130774745e+00   2.1531673999028012e+01   9.9999999973300080e-01
 -1.1875000000000000e+01   5.5721049679482837e-01   1.7946539158041239e+00   3.0151638883597971e+00   2.1531682002083173e+01   9.9999999972011000e-01
 -1.1850000000000000e+01   5.5721032008149818e-01   1.7946544849595372e+00   3.0151650916847359e+00   2.1531690196093813e+01   9.9999999970659670e-01
 -1.1824999999999999e+01   5.5721013915381168e-01   1.7946550676888546e+00   3.0151663237072270e+00   2.1531698585519710e+01   9.9999999969243147e-01
 -1.1799999999999999e+01   5.5720995390926553e-01   1.7946556643222442e+00   3.0151675851252642e+00   2.1531707175113830e+01   9.9999999967758213e-01
