# First column is time, second column is the perturbation of detonation velocity.
  0.0000000000000000e+00   1.0000000000000000e-10
  1.0000000000000000e-02   1.0009488420662078e-10
  2.0000000000000000e-02   1.0018392117412397e-10
  2.9999999999999999e-02   1.0027058418693883e-10
  4.0000000000000001e-02   1.0035765155226315e-10
  5.0000000000000003e-02   1.0044702700060177e-10
  5.9999999999999998e-02   1.0053966310724127e-10
  7.0000000000000007e-02   1.0063561567166048e-10
  8.0000000000000002e-02   1.0073422663426383e-10
  8.9999999999999997e-02   1.0083440344689024e-10
  1.0000000000000001e-01   1.0093494089404598e-10
  1.1000000000000000e-01   1.0103482223161197e-10
  1.2000000000000000e-01   1.0113344203574551e-10
  1.3000000000000000e-01   1.0123071167018872e-10
  1.4000000000000001e-01   1.0132703510146019e-10
  1.4999999999999999e-01   1.0142317144049691e-10
  1.6000000000000000e-01   1.0152002439684617e-10
  1.7000000000000001e-01   1.0161841251768341e-10
  1.7999999999999999e-01   1.0171887494158630e-10
  1.9000000000000000e-01   1.0182155581427041e-10
  2.0000000000000001e-01   1.0192618974390852e-10
  2.0999999999999999e-01   1.0203218594428903e-10
  2.2000000000000000e-01   1.0213878591418791e-10
  2.3000000000000001e-01   1.0224525378029576e-10
  2.3999999999999999e-01   1.0235105303851995e-10
  2.5000000000000000e-01   1.0245596905596078e-10
  2.6000000000000001e-01   1.0256015144750693e-10
  2.7000000000000002e-01   1.0266407040805791e-10
  2.8000000000000003e-01   1.0276840135473871e-10
  2.8999999999999998e-01   1.0287386809555159e-10
  2.9999999999999999e-01   1.0298108275009022e-10
  3.1000000000000000e-01   1.0309041936898433e-10
  3.2000000000000001e-01   1.0320194842828993e-10
  3.3000000000000002e-01   1.0331544383680855e-10
  3.4000000000000002e-01   1.0343045670325399e-10
  3.5000000000000003e-01   1.0354643499966960e-10
  3.5999999999999999e-01   1.0366285880829052e-10
  3.7000000000000000e-01   1.0377935893534035e-10
  3.8000000000000000e-01   1.0389579234831181e-10
  3.9000000000000001e-01   1.0401225941442327e-10
  4.0000000000000002e-01   1.0412906229498834e-10
  4.1000000000000003e-01   1.0424661759055409e-10
  4.1999999999999998e-01   1.0436534627913869e-10
  4.2999999999999999e-01   1.0448556804029599e-10
  4.4000000000000000e-01   1.0460742458942719e-10
  4.5000000000000001e-01   1.0473084858496368e-10
  4.6000000000000002e-01   1.0485558318939188e-10
  4.7000000000000003e-01   1.0498124531362718e-10
  4.7999999999999998e-01   1.0510741578142189e-10
  4.8999999999999999e-01   1.0523373426793137e-10
  5.0000000000000000e-01   1.0535997690634348e-10
  5.1000000000000001e-01   1.0548609961790772e-10
  5.2000000000000002e-01   1.0561223903107184e-10
  5.3000000000000003e-01   1.0573867307512532e-10
  5.4000000000000004e-01   1.0586575251735069e-10
  5.5000000000000004e-01   1.0599382078749807e-10
  5.6000000000000005e-01   1.0612314116014280e-10
  5.7000000000000006e-01   1.0625384758066881e-10
  5.7999999999999996e-01   1.0638592901618180e-10
  5.8999999999999997e-01   1.0651924887181262e-10
  5.9999999999999998e-01   1.0665359277666827e-10
  6.0999999999999999e-01   1.0678873181800189e-10
  6.2000000000000000e-01   1.0692448542277473e-10
  6.3000000000000000e-01   1.0706076903925839e-10
  6.4000000000000001e-01   1.0719761612815598e-10
  6.5000000000000002e-01   1.0733517053657645e-10
  6.6000000000000003e-01   1.0747365245509436e-10
  6.7000000000000004e-01   1.0761330716218769e-10
  6.8000000000000005e-01   1.0775434930732488e-10
  6.9000000000000006e-01   1.0789691588189064e-10
  7.0000000000000007e-01   1.0804103835216090e-10
  7.0999999999999996e-01   1.0818663946578514e-10
  7.1999999999999997e-01   1.0833355426630136e-10
  7.2999999999999998e-01   1.0848156929925942e-10
  7.3999999999999999e-01   1.0863047013215439e-10
  7.5000000000000000e-01   1.0878008594199548e-10
  7.6000000000000001e-01   1.0893032123072974e-10
  7.7000000000000002e-01   1.0908116826151486e-10
  7.8000000000000003e-01   1.0923269862761650e-10
  7.9000000000000004e-01   1.0938503728295738e-10
  8.0000000000000004e-01   1.0953832623329874e-10
  8.1000000000000005e-01   1.0969268706926459e-10
  8.2000000000000006e-01   1.0984819126028553e-10
  8.3000000000000007e-01   1.1000484480571791e-10
  8.3999999999999997e-01   1.1016259010794638e-10
  8.4999999999999998e-01   1.1032132373593787e-10
  8.5999999999999999e-01   1.1048092508705262e-10
  8.7000000000000000e-01   1.1064128865202667e-10
  8.8000000000000000e-01   1.1080235210537897e-10
  8.9000000000000001e-01   1.1096411379599147e-10
  9.0000000000000002e-01   1.1112663598836234e-10
  9.1000000000000003e-01   1.1129003368396142e-10
  9.2000000000000004e-01   1.1145445218969342e-10
  9.3000000000000005e-01   1.1162003903039806e-10
  9.4000000000000006e-01   1.1178691681008712e-10
  9.5000000000000007e-01   1.1195516305527981e-10
  9.5999999999999996e-01   1.1212480114102301e-10
  9.6999999999999997e-01   1.1229580362749688e-10
  9.7999999999999998e-01   1.1246810641045854e-10
  9.8999999999999999e-01   1.1264162969793163e-10
  1.0000000000000000e+00   1.1281630049312900e-10
  1.0100000000000000e+00   1.1299207124011090e-10
  1.0200000000000000e+00   1.1316893050729683e-10
  1.0300000000000000e+00   1.1334690369322456e-10
  1.0400000000000000e+00   1.1352604419984155e-10
  1.0500000000000000e+00   1.1370641773976611e-10
  1.0600000000000001e+00   1.1388808392179146e-10
  1.0700000000000001e+00   1.1407107968976968e-10
  1.0800000000000001e+00   1.1425540852983828e-10
  1.0900000000000001e+00   1.1444103782146068e-10
  1.1000000000000001e+00   1.1462790469349451e-10
  1.1100000000000001e+00   1.1481592875055010e-10
  1.1200000000000001e+00   1.1500502851964341e-10
  1.1300000000000001e+00   1.1519513775863998e-10
  1.1400000000000001e+00   1.1538621798765167e-10
  1.1500000000000001e+00   1.1557826465205289e-10
  1.1599999999999999e+00   1.1577130591428216e-10
  1.1699999999999999e+00   1.1596539480434994e-10
  1.1799999999999999e+00   1.1616059692731595e-10
  1.1899999999999999e+00   1.1635697680476006e-10
  1.2000000000000000e+00   1.1655458604566523e-10
  1.2100000000000000e+00   1.1675345591499087e-10
  1.2200000000000000e+00   1.1695359568245508e-10
  1.2300000000000000e+00   1.1715499669594321e-10
  1.2400000000000000e+00   1.1735764078159689e-10
  1.2500000000000000e+00   1.1756151063284074e-10
  1.2600000000000000e+00   1.1776659950996701e-10
  1.2700000000000000e+00   1.1797291787712842e-10
  1.2800000000000000e+00   1.1818049544877641e-10
  1.2900000000000000e+00   1.1838937827704885e-10
  1.3000000000000000e+00   1.1859962169877715e-10
  1.3100000000000001e+00   1.1881128089798103e-10
  1.3200000000000001e+00   1.1902440132217555e-10
  1.3300000000000001e+00   1.1923901113024760e-10
  1.3400000000000001e+00   1.1945511728849825e-10
  1.3500000000000001e+00   1.1967270602594918e-10
  1.3600000000000001e+00   1.1989174733788205e-10
  1.3700000000000001e+00   1.2011220233030129e-10
  1.3800000000000001e+00   1.2033403162782281e-10
  1.3900000000000001e+00   1.2055720293723112e-10
  1.4000000000000001e+00   1.2078169617435612e-10
  1.4099999999999999e+00   1.2100750522516805e-10
  1.4199999999999999e+00   1.2123463625001065e-10
  1.4299999999999999e+00   1.2146310324861746e-10
  1.4399999999999999e+00   1.2169292219694968e-10
  1.4500000000000000e+00   1.2192410531913710e-10
  1.4600000000000000e+00   1.2215665692922128e-10
  1.4700000000000000e+00   1.2239057181898721e-10
  1.4800000000000000e+00   1.2262583650482388e-10
  1.4900000000000000e+00   1.2286243294407104e-10
  1.5000000000000000e+00   1.2310034375566487e-10
  1.5100000000000000e+00   1.2333955765869039e-10
  1.5200000000000000e+00   1.2358007383734442e-10
  1.5300000000000000e+00   1.2382190423676035e-10
  1.5400000000000000e+00   1.2406507330699739e-10
  1.5500000000000000e+00   1.2430961531224277e-10
  1.5600000000000001e+00   1.2455556986567106e-10
  1.5700000000000001e+00   1.2480297671490505e-10
  1.5800000000000001e+00   1.2505187091407594e-10
  1.5900000000000001e+00   1.2530227936423071e-10
  1.6000000000000001e+00   1.2555421933446211e-10
  1.6100000000000001e+00   1.2580769908886898e-10
  1.6200000000000001e+00   1.2606272025845772e-10
  1.6300000000000001e+00   1.2631928122465791e-10
  1.6400000000000001e+00   1.2657738060197909e-10
  1.6500000000000001e+00   1.2683701995195545e-10
  1.6600000000000001e+00   1.2709820510573449e-10
  1.6699999999999999e+00   1.2736094584995275e-10
  1.6799999999999999e+00   1.2762525414444036e-10
  1.6899999999999999e+00   1.2789114139202117e-10
  1.7000000000000000e+00   1.2815861549125461e-10
  1.7100000000000000e+00   1.2842767843051753e-10
  1.7200000000000000e+00   1.2869832502929348e-10
  1.7300000000000000e+00   1.2897054314459536e-10
  1.7400000000000000e+00   1.2924431531089803e-10
  1.7500000000000000e+00   1.2951962145502987e-10
  1.7600000000000000e+00   1.2979644209772574e-10
  1.7700000000000000e+00   1.3007476136908861e-10
  1.7800000000000000e+00   1.3035456923796941e-10
  1.7900000000000000e+00   1.3063586256017046e-10
  1.8000000000000000e+00   1.3091864483313998e-10
  1.8100000000000001e+00   1.3120292483613454e-10
  1.8200000000000001e+00   1.3148871456721418e-10
  1.8300000000000001e+00   1.3177602701179900e-10
  1.8400000000000001e+00   1.3206487426978926e-10
  1.8500000000000001e+00   1.3235526643898115e-10
  1.8600000000000001e+00   1.3264721143890426e-10
  1.8700000000000001e+00   1.3294071571598168e-10
  1.8800000000000001e+00   1.3323578555662991e-10
  1.8900000000000001e+00   1.3353242859816349e-10
  1.9000000000000001e+00   1.3383065509601795e-10
  1.9100000000000001e+00   1.3413047858164920e-10
  1.9199999999999999e+00   1.3443191570521701e-10
  1.9299999999999999e+00   1.3473498525919388e-10
  1.9399999999999999e+00   1.3503970657406976e-10
  1.9500000000000000e+00   1.3534609762024005e-10
  1.9600000000000000e+00   1.3565417321029639e-10
  1.9700000000000000e+00   1.3596394366340665e-10
  1.9800000000000000e+00   1.3627541418035280e-10
  1.9900000000000000e+00   1.3658858501417740e-10
  2.0000000000000000e+00   1.3690345234741256e-10
  2.0100000000000002e+00   1.3722000964289508e-10
  2.0200000000000000e+00   1.3753824915244110e-10
  2.0300000000000002e+00   1.3785816326152464e-10
  2.0400000000000000e+00   1.3817974541538548e-10
  2.0499999999999998e+00   1.3850299049270004e-10
  2.0600000000000001e+00   1.3882789463585969e-10
  2.0699999999999998e+00   1.3915445467742644e-10
  2.0800000000000001e+00   1.3948266739072635e-10
  2.0899999999999999e+00   1.3981252882053576e-10
  2.1000000000000001e+00   1.4014403391425863e-10
  2.1099999999999999e+00   1.4047717658673605e-10
  2.1200000000000001e+00   1.4081195023617183e-10
  2.1299999999999999e+00   1.4114834861329999e-10
  2.1400000000000001e+00   1.4148636685800594e-10
  2.1499999999999999e+00   1.4182600247649317e-10
  2.1600000000000001e+00   1.4216725604524198e-10
  2.1699999999999999e+00   1.4251013148992554e-10
  2.1800000000000002e+00   1.4285463588160421e-10
  2.1899999999999999e+00   1.4320077879577120e-10
  2.2000000000000002e+00   1.4354857136814306e-10
  2.2100000000000000e+00   1.4389802523514843e-10
  2.2200000000000002e+00   1.4424915155648708e-10
  2.2300000000000000e+00   1.4460196028235683e-10
  2.2400000000000002e+00   1.4495645975958955e-10
  2.2500000000000000e+00   1.4531265668673209e-10
  2.2600000000000002e+00   1.4567055634842818e-10
  2.2700000000000000e+00   1.4603016300243241e-10
  2.2800000000000002e+00   1.4639148027003978e-10
  2.2900000000000000e+00   1.4675451139574881e-10
  2.3000000000000003e+00   1.4711925928875844e-10
  2.3100000000000001e+00   1.4748572632449057e-10
  2.3199999999999998e+00   1.4785391395210181e-10
  2.3300000000000001e+00   1.4822382220764506e-10
  2.3399999999999999e+00   1.4859544926005492e-10
  2.3500000000000001e+00   1.4896879111309460e-10
  2.3599999999999999e+00   1.4934384155308934e-10
  2.3700000000000001e+00   1.4972059237866931e-10
  2.3799999999999999e+00   1.5009903388810697e-10
  2.3900000000000001e+00   1.5047915554639934e-10
  2.3999999999999999e+00   1.5086094671986895e-10
  2.4100000000000001e+00   1.5124439735761095e-10
  2.4199999999999999e+00   1.5162949851714552e-10
  2.4300000000000002e+00   1.5201624267059891e-10
  2.4399999999999999e+00   1.5240462377759209e-10
  2.4500000000000002e+00   1.5279463715980543e-10
  2.4600000000000000e+00   1.5318627924889818e-10
  2.4700000000000002e+00   1.5357954729652497e-10
  2.4800000000000000e+00   1.5397443913003809e-10
  2.4900000000000002e+00   1.5437095301284080e-10
  2.5000000000000000e+00   1.5476908763138158e-10
  2.5100000000000002e+00   1.5516884219104975e-10
  2.5200000000000000e+00   1.5557021657044040e-10
  2.5300000000000002e+00   1.5597321146513638e-10
  2.5400000000000000e+00   1.5637782845202434e-10
  2.5500000000000003e+00   1.5678406992247835e-10
  2.5600000000000001e+00   1.5719193886269067e-10
  2.5699999999999998e+00   1.5760143849446631e-10
  2.5800000000000001e+00   1.5801257182154381e-10
  2.5899999999999999e+00   1.5842534114773925e-10
  2.6000000000000001e+00   1.5883974763947767e-10
  2.6099999999999999e+00   1.5925579099578229e-10
  2.6200000000000001e+00   1.5967346926639523e-10
  2.6299999999999999e+00   1.6009277882905694e-10
  2.6400000000000001e+00   1.6051371450707928e-10
  2.6499999999999999e+00   1.6093626978486381e-10
  2.6600000000000001e+00   1.6136043706674759e-10
  2.6699999999999999e+00   1.6178620792543934e-10
  2.6800000000000002e+00   1.6221357329914112e-10
  2.6899999999999999e+00   1.6264252361734209e-10
  2.7000000000000002e+00   1.6307304885870624e-10
  2.7100000000000000e+00   1.6350513856468763e-10
  2.7200000000000002e+00   1.6393878184483176e-10
  2.7300000000000000e+00   1.6437396741162952e-10
  2.7400000000000002e+00   1.6481068367436237e-10
  2.7500000000000000e+00   1.6524891890513461e-10
  2.7600000000000002e+00   1.6568866147048988e-10
  2.7700000000000000e+00   1.6612990010354827e-10
  2.7800000000000002e+00   1.6657262417884856e-10
  2.7900000000000000e+00   1.6701682394787520e-10
  2.8000000000000003e+00   1.6746249069833163e-10
  2.8100000000000001e+00   1.6790961681314850e-10
  2.8199999999999998e+00   1.6835819572282133e-10
  2.8300000000000001e+00   1.6880822176287315e-10
  2.8399999999999999e+00   1.6925968996303121e-10
  2.8500000000000001e+00   1.6971259580307699e-10
  2.8599999999999999e+00   1.7016693497089080e-10
  2.8700000000000001e+00   1.7062270315143867e-10
  2.8799999999999999e+00   1.7107989586344591e-10
  2.8900000000000001e+00   1.7153850834644038e-10
  2.8999999999999999e+00   1.7199853548815238e-10
  2.9100000000000001e+00   1.7245997177381292e-10
  2.9199999999999999e+00   1.7292281123638548e-10
  2.9300000000000002e+00   1.7338704739038328e-10
  2.9399999999999999e+00   1.7385267314036894e-10
  2.9500000000000002e+00   1.7431968066613896e-10
  2.9600000000000000e+00   1.7478806129710803e-10
  2.9700000000000002e+00   1.7525780539591577e-10
  2.9800000000000000e+00   1.7572890227397938e-10
  2.9900000000000002e+00   1.7620134015902821e-10
  3.0000000000000000e+00   1.7667510622727391e-10
  3.0100000000000002e+00   1.7715018670255877e-10
  3.0200000000000000e+00   1.7762656701394234e-10
  3.0300000000000002e+00   1.7810423199413149e-10
  3.0400000000000000e+00   1.7858316609579584e-10
  3.0500000000000003e+00   1.7906335360209002e-10
  3.0600000000000001e+00   1.7954477881147686e-10
  3.0700000000000003e+00   1.8002742618407630e-10
  3.0800000000000001e+00   1.8051128044542807e-10
  3.0899999999999999e+00   1.8099632665172103e-10
  3.1000000000000001e+00   1.8148255022642241e-10
  3.1099999999999999e+00   1.8196993698072395e-10
  3.1200000000000001e+00   1.8245847312905822e-10
  3.1299999999999999e+00   1.8294814530676185e-10
  3.1400000000000001e+00   1.8343894059109122e-10
  3.1499999999999999e+00   1.8393084652086288e-10
  3.1600000000000001e+00   1.8442385110557337e-10
  3.1699999999999999e+00   1.8491794281306533e-10
  3.1800000000000002e+00   1.8541311052609603e-10
  3.1899999999999999e+00   1.8590934346220743e-10
  3.2000000000000002e+00   1.8640663105713353e-10
  3.2100000000000000e+00   1.8690496281825293e-10
  3.2200000000000002e+00   1.8740432815988937e-10
  3.2300000000000000e+00   1.8790471623543326e-10
  3.2400000000000002e+00   1.8840611578168383e-10
  3.2500000000000000e+00   1.8890851498850457e-10
  3.2600000000000002e+00   1.8941190140246555e-10
  3.2700000000000000e+00   1.8991626186765870e-10
  3.2800000000000002e+00   1.9042158250152942e-10
  3.2900000000000000e+00   1.9092784869946765e-10
  3.3000000000000003e+00   1.9143504515977331e-10
  3.3100000000000001e+00   1.9194315592068715e-10
  3.3200000000000003e+00   1.9245216440315783e-10
  3.3300000000000001e+00   1.9296205345618035e-10
  3.3399999999999999e+00   1.9347280540494608e-10
  3.3500000000000001e+00   1.9398440210475002e-10
  3.3599999999999999e+00   1.9449682500490655e-10
  3.3700000000000001e+00   1.9501005522651206e-10
  3.3799999999999999e+00   1.9552407365588116e-10
  3.3900000000000001e+00   1.9603886105239673e-10
  3.3999999999999999e+00   1.9655439816610854e-10
  3.4100000000000001e+00   1.9707066585752668e-10
  3.4199999999999999e+00   1.9758764521036681e-10
  3.4300000000000002e+00   1.9810531762791707e-10
  3.4399999999999999e+00   1.9862366490523516e-10
  3.4500000000000002e+00   1.9914266927221796e-10
  3.4600000000000000e+00   1.9966231340610871e-10
  3.4700000000000002e+00   2.0018258041550098e-10
  3.4800000000000000e+00   2.0070345380068882e-10
  3.4900000000000002e+00   2.0122491739682922e-10
  3.5000000000000000e+00   2.0174695530664005e-10
  3.5100000000000002e+00   2.0226955182839227e-10
  3.5200000000000000e+00   2.0279269138315648e-10
  3.5300000000000002e+00   2.0331635844318702e-10
  3.5400000000000000e+00   2.0384053746152365e-10
  3.5500000000000003e+00   2.0436521280181542e-10
  3.5600000000000001e+00   2.0489036866724142e-10
  3.5700000000000003e+00   2.0541598902819846e-10
  3.5800000000000001e+00   2.0594205754987261e-10
  3.5899999999999999e+00   2.0646855752249256e-10
  3.6000000000000001e+00   2.0699547179849630e-10
  3.6099999999999999e+00   2.0752278274162301e-10
  3.6200000000000001e+00   2.0805047219282134e-10
  3.6299999999999999e+00   2.0857852145680389e-10
  3.6400000000000001e+00   2.0910691131126250e-10
  3.6499999999999999e+00   2.0963562203852894e-10
  3.6600000000000001e+00   2.1016463347725140e-10
  3.6699999999999999e+00   2.1069392508986320e-10
  3.6800000000000002e+00   2.1122347604054913e-10
  3.6899999999999999e+00   2.1175326527819220e-10
  3.7000000000000002e+00   2.1228327161935988e-10
  3.7100000000000000e+00   2.1281347382753635e-10
  3.7200000000000002e+00   2.1334385068621562e-10
  3.7300000000000000e+00   2.1387438106478830e-10
  3.7400000000000002e+00   2.1440504397710924e-10
  3.7500000000000000e+00   2.1493581863305359e-10
  3.7600000000000002e+00   2.1546668448324931e-10
  3.7700000000000000e+00   2.1599762125663860e-10
  3.7800000000000002e+00   2.1652860898980236e-10
  3.7900000000000000e+00   2.1705962804634963e-10
  3.8000000000000003e+00   2.1759065912436978e-10
  3.8100000000000001e+00   2.1812168325011893e-10
  3.8200000000000003e+00   2.1865268175680135e-10
  3.8300000000000001e+00   2.1918363624841081e-10
  3.8399999999999999e+00   2.1971452854992669e-10
  3.8500000000000001e+00   2.2024534064646392e-10
  3.8599999999999999e+00   2.2077605461501279e-10
  3.8700000000000001e+00   2.2130665255299199e-10
  3.8799999999999999e+00   2.2183711650788739e-10
  3.8900000000000001e+00   2.2236742841178795e-10
  3.8999999999999999e+00   2.2289757002378109e-10
  3.9100000000000001e+00   2.2342752288212632e-10
  3.9199999999999999e+00   2.2395726826709465e-10
  3.9300000000000002e+00   2.2448678717452868e-10
  3.9399999999999999e+00   2.2501606029965327e-10
  3.9500000000000002e+00   2.2554506803048348e-10
  3.9600000000000000e+00   2.2607379045026975e-10
  3.9700000000000002e+00   2.2660220734867481e-10
