# First column is time, second column is the perturbation of detonation velocity.
  0.0000000000000000e+00   1.0000000000000000e-10
  5.0000000000000001e-03   1.0020640772889762e-10
  1.0000000000000000e-02   1.0044388546197823e-10
  1.4999999999999999e-02   1.0072158773245727e-10
  2.0000000000000000e-02   1.0094923782277742e-10
  2.5000000000000001e-02   1.0115684964096807e-10
  2.9999999999999999e-02   1.0141198389696161e-10
  3.5000000000000003e-02   1.0169511621029914e-10
  4.0000000000000001e-02   1.0194956723409087e-10
  4.4999999999999998e-02   1.0218292042830009e-10
  5.0000000000000003e-02   1.0244233541670457e-10
  5.5000000000000000e-02   1.0272996698121381e-10
  5.9999999999999998e-02   1.0300846375799692e-10
  6.5000000000000002e-02   1.0326994516743183e-10
  7.0000000000000007e-02   1.0354311002721971e-10
  7.4999999999999997e-02   1.0383923264350447e-10
  8.0000000000000002e-02   1.0413739477963458e-10
  8.5000000000000006e-02   1.0442524194753447e-10
  8.9999999999999997e-02   1.0471763873789424e-10
  9.5000000000000001e-02   1.0502714535096102e-10
  1.0000000000000001e-01   1.0534411866881827e-10
  1.0500000000000000e-01   1.0565702577318444e-10
  1.1000000000000000e-01   1.0597179679656358e-10
  1.1500000000000000e-01   1.0629880415084206e-10
  1.2000000000000000e-01   1.0663517895916937e-10
  1.2500000000000000e-01   1.0697227811862386e-10
  1.3000000000000000e-01   1.0731110591656990e-10
  1.3500000000000001e-01   1.0765892177026182e-10
  1.4000000000000001e-01   1.0801631778839804e-10
  1.4499999999999999e-01   1.0837776774440208e-10
  1.4999999999999999e-01   1.0874207029467610e-10
  1.5500000000000000e-01   1.0911366006862206e-10
  1.6000000000000000e-01   1.0949445965998619e-10
  1.6500000000000001e-01   1.0988145969487639e-10
  1.7000000000000001e-01   1.1027283773927897e-10
  1.7500000000000002e-01   1.1067092163427453e-10
  1.7999999999999999e-01   1.1107778334702871e-10
  1.8500000000000000e-01   1.1149212475123817e-10
  1.9000000000000000e-01   1.1191228459709999e-10
  1.9500000000000001e-01   1.1233923826613727e-10
  2.0000000000000001e-01   1.1277469313258980e-10
  2.0500000000000002e-01   1.1321836724236987e-10
  2.0999999999999999e-01   1.1366906012433677e-10
  2.1500000000000000e-01   1.1412701397463129e-10
  2.2000000000000000e-01   1.1459345315318450e-10
  2.2500000000000001e-01   1.1506861630051691e-10
  2.3000000000000001e-01   1.1555179563908045e-10
  2.3500000000000001e-01   1.1604291992239160e-10
  2.3999999999999999e-01   1.1654278777414640e-10
  2.4500000000000000e-01   1.1705183768868777e-10
  2.5000000000000000e-01   1.1756975350618911e-10
  2.5500000000000000e-01   1.1809638200394979e-10
  2.6000000000000001e-01   1.1863220112084342e-10
  2.6500000000000001e-01   1.1917766184074742e-10
  2.7000000000000002e-01   1.1973270140465734e-10
  2.7500000000000002e-01   1.2029718773431118e-10
  2.8000000000000003e-01   1.2087138301730741e-10
  2.8500000000000003e-01   1.2145566486323206e-10
  2.8999999999999998e-01   1.2205010784319930e-10
  2.9499999999999998e-01   1.2265463645910757e-10
  2.9999999999999999e-01   1.2326938584205539e-10
  3.0499999999999999e-01   1.2389463950735334e-10
  3.1000000000000000e-01   1.2453052960222352e-10
  3.1500000000000000e-01   1.2517703586552235e-10
  3.2000000000000001e-01   1.2583422465680488e-10
  3.2500000000000001e-01   1.2650228863764671e-10
  3.3000000000000002e-01   1.2718136035250398e-10
  3.3500000000000002e-01   1.2787144724882767e-10
  3.4000000000000002e-01   1.2857256792320710e-10
  3.4500000000000003e-01   1.2928482463411225e-10
  3.5000000000000003e-01   1.3000830377813946e-10
  3.5499999999999998e-01   1.3074299847799316e-10
  3.5999999999999999e-01   1.3148887267268077e-10
  3.6499999999999999e-01   1.3224593125572911e-10
  3.7000000000000000e-01   1.3301417791722322e-10
  3.7500000000000000e-01   1.3379354934669490e-10
  3.8000000000000000e-01   1.3458393546205189e-10
  3.8500000000000001e-01   1.3538523301733584e-10
  3.9000000000000001e-01   1.3619733586850392e-10
  3.9500000000000002e-01   1.3702008780213370e-10
  4.0000000000000002e-01   1.3785327971875818e-10
  4.0500000000000003e-01   1.3869668411720304e-10
  4.1000000000000003e-01   1.3955006016069850e-10
  4.1500000000000004e-01   1.4041312378171063e-10
  4.1999999999999998e-01   1.4128553536409838e-10
  4.2499999999999999e-01   1.4216691829879025e-10
  4.2999999999999999e-01   1.4305686861060280e-10
  4.3500000000000000e-01   1.4395493839174746e-10
  4.4000000000000000e-01   1.4486062210527415e-10
  4.4500000000000001e-01   1.4577336454619918e-10
  4.5000000000000001e-01   1.4669257041129150e-10
  4.5500000000000002e-01   1.4761759713928554e-10
  4.6000000000000002e-01   1.4854774407695205e-10
  4.6500000000000002e-01   1.4948225491813781e-10
  4.7000000000000003e-01   1.5042032585978126e-10
  4.7500000000000003e-01   1.5136110468254340e-10
  4.7999999999999998e-01   1.5230368437355568e-10
  4.8499999999999999e-01   1.5324710379228236e-10
  4.8999999999999999e-01   1.5419035462163390e-10
  4.9500000000000000e-01   1.5513238450430252e-10
  5.0000000000000000e-01   1.5607209531845731e-10
  5.0500000000000000e-01   1.5700834455076369e-10
  5.1000000000000001e-01   1.5793995198164078e-10
  5.1500000000000001e-01   1.5886570571808737e-10
  5.2000000000000002e-01   1.5978436483191434e-10
  5.2500000000000002e-01   1.6069466294584686e-10
  5.3000000000000003e-01   1.6159531570486266e-10
  5.3500000000000003e-01   1.6248502914280851e-10
  5.4000000000000004e-01   1.6336250606596213e-10
  5.4500000000000004e-01   1.6422645232043817e-10
  5.5000000000000004e-01   1.6507558549365544e-10
  5.5500000000000005e-01   1.6590864488911156e-10
  5.6000000000000005e-01   1.6672440041973223e-10
  5.6500000000000006e-01   1.6752166081524580e-10
  5.7000000000000006e-01   1.6829928293730701e-10
  5.7500000000000007e-01   1.6905618201124055e-10
  5.7999999999999996e-01   1.6979134111775754e-10
  5.8499999999999996e-01   1.7050381962430130e-10
  5.8999999999999997e-01   1.7119276163081191e-10
  5.9499999999999997e-01   1.7185740466981810e-10
  5.9999999999999998e-01   1.7249708764896983e-10
  6.0499999999999998e-01   1.7311125749289910e-10
  6.0999999999999999e-01   1.7369947503640204e-10
  6.1499999999999999e-01   1.7426142054587879e-10
  6.2000000000000000e-01   1.7479689835857012e-10
  6.2500000000000000e-01   1.7530584014169218e-10
  6.3000000000000000e-01   1.7578830700930532e-10
  6.3500000000000001e-01   1.7624449087187217e-10
  6.4000000000000001e-01   1.7667471485137072e-10
  6.4500000000000002e-01   1.7707943241846998e-10
  6.5000000000000002e-01   1.7745922533718964e-10
  6.5500000000000003e-01   1.7781480073934826e-10
  6.6000000000000003e-01   1.7814698736995056e-10
  6.6500000000000004e-01   1.7845673082909234e-10
  6.7000000000000004e-01   1.7874508784473469e-10
  6.7500000000000004e-01   1.7901321983608419e-10
  6.8000000000000005e-01   1.7926238591320017e-10
  6.8500000000000005e-01   1.7949393527139278e-10
  6.9000000000000006e-01   1.7970929900875621e-10
  6.9500000000000006e-01   1.7990998156341188e-10
  7.0000000000000007e-01   1.8009755194286887e-10
  7.0499999999999996e-01   1.8027363477947267e-10
  7.0999999999999996e-01   1.8043990123940087e-10
  7.1499999999999997e-01   1.8059805991704071e-10
  7.1999999999999997e-01   1.8074984786138504e-10
  7.2499999999999998e-01   1.8089702178993404e-10
  7.2999999999999998e-01   1.8104134950676173e-10
  7.3499999999999999e-01   1.8118460159503041e-10
  7.3999999999999999e-01   1.8132854348073465e-10
  7.4500000000000000e-01   1.8147492791204883e-10
  7.5000000000000000e-01   1.8162548785485659e-10
  7.5500000000000000e-01   1.8178192982633610e-10
  7.6000000000000001e-01   1.8194592771450681e-10
  7.6500000000000001e-01   1.8211911710722656e-10
  7.7000000000000002e-01   1.8230309011844611e-10
  7.7500000000000002e-01   1.8249939070344056e-10
  7.8000000000000003e-01   1.8270951047533414e-10
  7.8500000000000003e-01   1.8293488502792379e-10
  7.9000000000000004e-01   1.8317689074534271e-10
  7.9500000000000004e-01   1.8343684207494723e-10
  8.0000000000000004e-01   1.8371598925353972e-10
  8.0500000000000005e-01   1.8401551647815674e-10
  8.1000000000000005e-01   1.8433654049794277e-10
  8.1500000000000006e-01   1.8468010959691473e-10
  8.2000000000000006e-01   1.8504720294529784e-10
  8.2500000000000007e-01   1.8543873030155809e-10
  8.3000000000000007e-01   1.8585553203999961e-10
  8.3499999999999996e-01   1.8629837947287165e-10
  8.3999999999999997e-01   1.8676797544014897e-10
  8.4499999999999997e-01   1.8726495514556554e-10
  8.4999999999999998e-01   1.8778988721546739e-10
  8.5499999999999998e-01   1.8834327495331535e-10
  8.5999999999999999e-01   1.8892555776501184e-10
  8.6499999999999999e-01   1.8953711273529407e-10
  8.7000000000000000e-01   1.9017825633637021e-10
  8.7500000000000000e-01   1.9084924624817989e-10
  8.8000000000000000e-01   1.9155028327082531e-10
  8.8500000000000001e-01   1.9228151331356351e-10
  8.9000000000000001e-01   1.9304302944662554e-10
  8.9500000000000002e-01   1.9383487400142174e-10
  9.0000000000000002e-01   1.9465704070499559e-10
  9.0500000000000003e-01   1.9550947683698985e-10
  9.1000000000000003e-01   1.9639208539917662e-10
  9.1500000000000004e-01   1.9730472728749769e-10
  9.2000000000000004e-01   1.9824722345650448e-10
  9.2500000000000004e-01   1.9921935706749504e-10
  9.3000000000000005e-01   2.0022087561320354e-10
  9.3500000000000005e-01   2.0125149301228113e-10
  9.4000000000000006e-01   2.0231089166686921e-10
  9.4500000000000006e-01   2.0339872447751038e-10
  9.5000000000000007e-01   2.0451461681099292e-10
  9.5500000000000007e-01   2.0565816841742575e-10
  9.5999999999999996e-01   2.0682895529307712e-10
  9.6499999999999997e-01   2.0802653148614601e-10
  9.6999999999999997e-01   2.0925043084363983e-10
  9.7499999999999998e-01   2.1050016869818636e-10
  9.7999999999999998e-01   2.1177524349380893e-10
  9.8499999999999999e-01   2.1307513834997598e-10
  9.8999999999999999e-01   2.1439932256377832e-10
  9.9500000000000000e-01   2.1574725305049748e-10
  1.0000000000000000e+00   2.1711837572288513e-10
  1.0050000000000001e+00   2.1851212680950676e-10
  1.0100000000000000e+00   2.1992793411272346e-10
  1.0150000000000001e+00   2.2136521820711447e-10
  1.0200000000000000e+00   2.2282339357918972e-10
  1.0249999999999999e+00   2.2430186970923048e-10
  1.0300000000000000e+00   2.2580005209622369e-10
  1.0349999999999999e+00   2.2731734322705913e-10
  1.0400000000000000e+00   2.2885314349126934e-10
  1.0449999999999999e+00   2.3040685204264168e-10
  1.0500000000000000e+00   2.3197786760914495e-10
  1.0549999999999999e+00   2.3356558925277844e-10
  1.0600000000000001e+00   2.3516941708106897e-10
  1.0649999999999999e+00   2.3678875291197492e-10
  1.0700000000000001e+00   2.3842300089399051e-10
  1.0750000000000000e+00   2.4007156808329937e-10
  1.0800000000000001e+00   2.4173386497984988e-10
  1.0850000000000000e+00   2.4340930602418546e-10
  1.0900000000000001e+00   2.4509731005679259e-10
  1.0950000000000000e+00   2.4679730074168791e-10
  1.1000000000000001e+00   2.4850870695592209e-10
  1.1050000000000000e+00   2.5023096314659428e-10
  1.1100000000000001e+00   2.5196350965689603e-10
  1.1150000000000000e+00   2.5370579302264163e-10
  1.1200000000000001e+00   2.5545726624070788e-10
  1.1250000000000000e+00   2.5721738901077344e-10
  1.1300000000000001e+00   2.5898562795169739e-10
  1.1350000000000000e+00   2.6076145679386886e-10
  1.1400000000000001e+00   2.6254435654884950e-10
  1.1450000000000000e+00   2.6433381565762357e-10
  1.1500000000000001e+00   2.6612933011875998e-10
  1.1550000000000000e+00   2.6793040359776805e-10
  1.1599999999999999e+00   2.6973654751891081e-10
  1.1650000000000000e+00   2.7154728114072651e-10
  1.1699999999999999e+00   2.7336213161645061e-10
  1.1750000000000000e+00   2.7518063404050307e-10
  1.1799999999999999e+00   2.7700233148213102e-10
  1.1850000000000001e+00   2.7882677500726695e-10
  1.1899999999999999e+00   2.8065352368958367e-10
  1.1950000000000001e+00   2.8248214461167818e-10
  1.2000000000000000e+00   2.8431221285725321e-10
  1.2050000000000001e+00   2.8614331149512510e-10
  1.2100000000000000e+00   2.8797503155583761e-10
  1.2150000000000001e+00   2.8980697200162566e-10
  1.2200000000000000e+00   2.9163873969044628e-10
  1.2250000000000001e+00   2.9346994933476735e-10
  1.2300000000000000e+00   2.9530022345579320e-10
  1.2350000000000001e+00   2.9712919233378820e-10
  1.2400000000000000e+00   2.9895649395514486e-10
  1.2450000000000001e+00   3.0078177395683484e-10
  1.2500000000000000e+00   3.0260468556885775e-10
  1.2550000000000001e+00   3.0442488955529321e-10
  1.2600000000000000e+00   3.0624205415453169e-10
  1.2650000000000001e+00   3.0805585501923858e-10
  1.2700000000000000e+00   3.0986597515657112e-10
  1.2750000000000001e+00   3.1167210486914498e-10
  1.2800000000000000e+00   3.1347394169720683e-10
  1.2849999999999999e+00   3.1527119036244166e-10
  1.2900000000000000e+00   3.1706356271380663e-10
  1.2949999999999999e+00   3.1885077767576351e-10
  1.3000000000000000e+00   3.2063256119924690e-10
  1.3049999999999999e+00   3.2240864621568888e-10
  1.3100000000000001e+00   3.2417877259439446e-10
  1.3149999999999999e+00   3.2594268710355817e-10
  1.3200000000000001e+00   3.2770014337518317e-10
  1.3250000000000000e+00   3.2945090187416122e-10
  1.3300000000000001e+00   3.3119472987175909e-10
  1.3350000000000000e+00   3.3293140142373778e-10
  1.3400000000000001e+00   3.3466069735332280e-10
  1.3450000000000000e+00   3.3638240523922326e-10
  1.3500000000000001e+00   3.3809631940888184e-10
  1.3550000000000000e+00   3.3980224093711525e-10
  1.3600000000000001e+00   3.4149997765027583e-10
  1.3650000000000000e+00   3.4318934413604781e-10
  1.3700000000000001e+00   3.4487016175895724e-10
  1.3750000000000000e+00   3.4654225868164844e-10
  1.3800000000000001e+00   3.4820546989195079e-10
  1.3850000000000000e+00   3.4985963723573271e-10
  1.3900000000000001e+00   3.5150460945550649e-10
  1.3950000000000000e+00   3.5314024223472300e-10
  1.4000000000000001e+00   3.5476639824766957e-10
  1.4050000000000000e+00   3.5638294721485912e-10
  1.4099999999999999e+00   3.5798976596376649e-10
  1.4150000000000000e+00   3.5958673849474816e-10
  1.4199999999999999e+00   3.6117375605195436e-10
  1.4250000000000000e+00   3.6275071719901700e-10
  1.4299999999999999e+00   3.6431752789926084e-10
  1.4350000000000001e+00   3.6587410160017000e-10
  1.4399999999999999e+00   3.6742035932179809e-10
  1.4450000000000001e+00   3.6895622974878607e-10
  1.4500000000000000e+00   3.7048164932561134e-10
  1.4550000000000001e+00   3.7199656235466772e-10
  1.4600000000000000e+00   3.7350092109672700e-10
  1.4650000000000001e+00   3.7499468587330906e-10
  1.4700000000000000e+00   3.7647782517044636e-10
  1.4750000000000001e+00   3.7795031574329683e-10
  1.4800000000000000e+00   3.7941214272101957e-10
  1.4850000000000001e+00   3.8086329971131002e-10
  1.4900000000000000e+00   3.8230378890394504e-10
  1.4950000000000001e+00   3.8373362117267278e-10
  1.5000000000000000e+00   3.8515281617474886e-10
  1.5050000000000001e+00   3.8656140244740088e-10
  1.5100000000000000e+00   3.8795941750048123e-10
  1.5150000000000001e+00   3.8934690790454801e-10
  1.5200000000000000e+00   3.9072392937359660e-10
  1.5250000000000001e+00   3.9209054684165367e-10
  1.5300000000000000e+00   3.9344683453242854e-10
  1.5350000000000001e+00   3.9479287602121229e-10
  1.5400000000000000e+00   3.9612876428820719e-10
  1.5449999999999999e+00   3.9745460176246378e-10
  1.5500000000000000e+00   3.9877050035561277e-10
  1.5549999999999999e+00   4.0007658148457257e-10
  1.5600000000000001e+00   4.0137297608243061e-10
  1.5649999999999999e+00   4.0265982459670745e-10
  1.5700000000000001e+00   4.0393727697423875e-10
  1.5750000000000000e+00   4.0520549263192080e-10
  1.5800000000000001e+00   4.0646464041260870e-10
  1.5850000000000000e+00   4.0771489852548344e-10
  1.5900000000000001e+00   4.0895645447024622e-10
  1.5950000000000000e+00   4.1018950494454827e-10
  1.6000000000000001e+00   4.1141425573410280e-10
  1.6050000000000000e+00   4.1263092158499248e-10
  1.6100000000000001e+00   4.1383972605774176e-10
  1.6150000000000000e+00   4.1504090136278593e-10
  1.6200000000000001e+00   4.1623468817703375e-10
  1.6250000000000000e+00   4.1742133544129671e-10
  1.6300000000000001e+00   4.1860110013842870e-10
  1.6350000000000000e+00   4.1977424705210185e-10
  1.6400000000000001e+00   4.2094104850621384e-10
  1.6450000000000000e+00   4.2210178408501573e-10
  1.6500000000000001e+00   4.2325674033412203e-10
  1.6550000000000000e+00   4.2440621044266096e-10
  1.6600000000000001e+00   4.2555049390689899e-10
  1.6650000000000000e+00   4.2668989617575969e-10
  1.6699999999999999e+00   4.2782472827875316e-10
  1.6750000000000000e+00   4.2895530643690708e-10
  1.6799999999999999e+00   4.3008195165737917e-10
  1.6850000000000001e+00   4.3120498931251000e-10
  1.6899999999999999e+00   4.3232474870415925e-10
  1.6950000000000001e+00   4.3344156261424438e-10
  1.7000000000000000e+00   4.3455576684246903e-10
  1.7050000000000001e+00   4.3566769973230186e-10
  1.7100000000000000e+00   4.3677770168633404e-10
  1.7150000000000001e+00   4.3788611467219906e-10
  1.7200000000000000e+00   4.3899328172028916e-10
  1.7250000000000001e+00   4.4009954641456477e-10
  1.7300000000000000e+00   4.4120525237778046e-10
  1.7350000000000001e+00   4.4231074275249998e-10
  1.7400000000000000e+00   4.4341635967929905e-10
  1.7450000000000001e+00   4.4452244377357474e-10
  1.7500000000000000e+00   4.4562933360240709e-10
  1.7550000000000001e+00   4.4673736516292480e-10
  1.7600000000000000e+00   4.4784687136363156e-10
  1.7650000000000001e+00   4.4895818151014934e-10
  1.7700000000000000e+00   4.5007162079683633e-10
  1.7750000000000001e+00   4.5118750980570669e-10
  1.7800000000000000e+00   4.5230616401407887e-10
  1.7850000000000001e+00   4.5342789331234314e-10
  1.7900000000000000e+00   4.5455300153321682e-10
  1.7949999999999999e+00   4.5568178599381435e-10
  1.8000000000000000e+00   4.5681453705182728e-10
  1.8049999999999999e+00   4.5795153767705897e-10
  1.8100000000000001e+00   4.5909306303951931e-10
  1.8149999999999999e+00   4.6023938011522335e-10
  1.8200000000000001e+00   4.6139074731079553e-10
  1.8250000000000000e+00   4.6254741410790999e-10
  1.8300000000000001e+00   4.6370962072855717e-10
  1.8350000000000000e+00   4.6487759782204276e-10
  1.8400000000000001e+00   4.6605156617458158e-10
  1.8450000000000000e+00   4.6723173644227473e-10
  1.8500000000000001e+00   4.6841830890819577e-10
  1.8550000000000000e+00   4.6961147326424363e-10
  1.8600000000000001e+00   4.7081140841836349e-10
  1.8650000000000000e+00   4.7201828232765644e-10
  1.8700000000000001e+00   4.7323225185785047e-10
  1.8750000000000000e+00   4.7445346266951910e-10
  1.8800000000000001e+00   4.7568204913139634e-10
  1.8850000000000000e+00   4.7691813426105010e-10
  1.8900000000000001e+00   4.7816182969312500e-10
  1.8950000000000000e+00   4.7941323567530212e-10
  1.9000000000000001e+00   4.8067244109206801e-10
  1.9050000000000000e+00   4.8193952351631431e-10
  1.9100000000000001e+00   4.8321454928874589e-10
  1.9150000000000000e+00   4.8449757362501012e-10
  1.9199999999999999e+00   4.8578864075040696e-10
  1.9250000000000000e+00   4.8708778406199133e-10
  1.9299999999999999e+00   4.8839502631781830e-10
  1.9350000000000001e+00   4.8971037985303368e-10
  1.9399999999999999e+00   4.9103384682247129e-10
  1.9450000000000001e+00   4.9236541946935484e-10
  1.9500000000000000e+00   4.9370508041966238e-10
  1.9550000000000001e+00   4.9505280300166786e-10
  1.9600000000000000e+00   4.9640855159012052e-10
  1.9650000000000001e+00   4.9777228197448472e-10
  1.9700000000000000e+00   4.9914394175060717e-10
  1.9750000000000001e+00   5.0052347073514973e-10
  1.9800000000000000e+00   5.0191080140206723e-10
  1.9850000000000001e+00   5.0330585934037987e-10
