# ZND solution.
# Columns are: spatial coordinate; specific volume; density;
# flow velocity in lab frame; pressure; reaction progress variable.
 -1.5037500000000000e+01   5.5721746169784858e-01   1.7946314836455186e+00   3.0151164610293830e+00   2.1531359046879963e+01   9.9999999999900002e-01
 -1.5025000000000000e+01   5.5721746169784858e-01   1.7946314836455186e+00   3.0151164610293830e+00   2.1531359046879963e+01   9.9999999999900002e-01
 -1.5012499999999999e+01   5.5721746169784858e-01   1.7946314836455186e+00   3.0151164610293830e+00   2.1531359046879963e+01   9.9999999999900002e-01
 -1.5000000000000000e+01   5.5721746169784858e-01   1.7946314836455186e+00   3.0151164610293830e+00   2.1531359046879963e+01   9.9999999999900002e-01
 -1.4987499999999999e+01   5.5721746169784858e-01   1.7946314836455186e+00   3.0151164610293830e+00   2.1531359046879963e+01   9.9999999999900002e-01
 -1.4975000000000000e+01   5.5721746169784858e-01   1.7946314836455186e+00   3.0151164610293830e+00   2.1531359046879963e+01   9.9999999999900002e-01
 -1.4962500000000000e+01   5.5721746169784858e-01   1.7946314836455186e+00   3.0151164610293830e+00   2.1531359046879963e+01   9.9999999999900002e-01
 -1.4949999999999999e+01   5.5721746169784858e-01   1.7946314836455186e+00   3.0151164610293830e+00   2.1531359046879963e+01   9.9999999999900002e-01
 -1.4937500000000000e+01   5.5721746169784858e-01   1.7946314836455186e+00   3.0151164610293830e+00   2.1531359046879963e+01   9.9999999999900002e-01
 -1.4924999999999999e+01   5.5721746169784858e-01   1.7946314836455186e+00   3.0151164610293830e+00   2.1531359046879963e+01   9.9999999999900002e-01
 -1.4912500000000000e+01   5.5721746169784858e-01   1.7946314836455186e+00   3.0151164610293830e+00   2.1531359046879963e+01   9.9999999999900002e-01
 -1.4900000000000000e+01   5.5721746169784858e-01   1.7946314836455186e+00   3.0151164610293830e+00   2.1531359046879963e+01   9.9999999999900002e-01
 -1.4887499999999999e+01   5.5721746169784858e-01   1.7946314836455186e+00   3.0151164610293830e+00   2.1531359046879963e+01   9.9999999999900002e-01
 -1.4875000000000000e+01   5.5721746169784858e-01   1.7946314836455186e+00   3.0151164610293830e+00   2.1531359046879963e+01   9.9999999999900002e-01
 -1.4862499999999999e+01   5.5721746169784858e-01   1.7946314836455186e+00   3.0151164610293830e+00   2.1531359046879963e+01   9.9999999999899980e-01
 -1.4850000000000000e+01   5.5721745632003283e-01   1.7946315009658618e+00   3.0151164976494829e+00   2.1531359296243604e+01   9.9999999999897538e-01
 -1.4837500000000000e+01   5.5721745100598608e-01   1.7946315180808241e+00   3.0151165338353496e+00   2.1531359542650346e+01   9.9999999999895095e-01
 -1.4824999999999999e+01   5.5721744579106514e-01   1.7946315348765320e+00   3.0151165693462212e+00   2.1531359784460726e+01   9.9999999999892653e-01
 -1.4812500000000000e+01   5.5721744033760900e-01   1.7946315524404912e+00   3.0151166064813926e+00   2.1531360037331734e+01   9.9999999999890088e-01
 -1.4799999999999999e+01   5.5721743472729712e-01   1.7946315705096363e+00   3.0151166446846687e+00   2.1531360297475974e+01   9.9999999999887423e-01
 -1.4787500000000000e+01   5.5721742921946371e-01   1.7946315882487291e+00   3.0151166821901207e+00   2.1531360552868396e+01   9.9999999999884748e-01
 -1.4775000000000000e+01   5.5721742373887895e-01   1.7946316059000627e+00   3.0151167195100235e+00   2.1531360806997331e+01   9.9999999999882072e-01
 -1.4762499999999999e+01   5.5721741782400536e-01   1.7946316249501115e+00   3.0151167597872051e+00   2.1531361081263775e+01   9.9999999999879186e-01
 -1.4750000000000000e+01   5.5721741205015574e-01   1.7946316435459646e+00   3.0151167991040877e+00   2.1531361348991091e+01   9.9999999999876299e-01
 -1.4737499999999999e+01   5.5721740630862515e-01   1.7946316620377281e+00   3.0151168382008948e+00   2.1531361615219804e+01   9.9999999999873412e-01
 -1.4725000000000000e+01   5.5721740035893363e-01   1.7946316811999166e+00   3.0151168787151681e+00   2.1531361891100723e+01   9.9999999999870359e-01
 -1.4712500000000000e+01   5.5721739434348505e-01   1.7946317005738892e+00   3.0151169196772125e+00   2.1531362170030725e+01   9.9999999999867240e-01
 -1.4699999999999999e+01   5.5721738839814516e-01   1.7946317197220631e+00   3.0151169601618539e+00   2.1531362445709860e+01   9.9999999999864131e-01
 -1.4687500000000000e+01   5.5721738222342287e-01   1.7946317396090099e+00   3.0151170022084686e+00   2.1531362732025215e+01   9.9999999999860856e-01
 -1.4674999999999999e+01   5.5721737599039045e-01   1.7946317596837569e+00   3.0151170446521447e+00   2.1531363021044353e+01   9.9999999999857525e-01
 -1.4662500000000000e+01   5.5721736983001591e-01   1.7946317795244948e+00   3.0151170866010588e+00   2.1531363306694420e+01   9.9999999999854183e-01
 -1.4650000000000000e+01   5.5721736338932470e-01   1.7946318002680499e+00   3.0151171304587820e+00   2.1531363605342474e+01   9.9999999999850653e-01
 -1.4637499999999999e+01   5.5721735702439879e-01   1.7946318207675882e+00   3.0151171738005837e+00   2.1531363900477373e+01   9.9999999999847100e-01
 -1.4625000000000000e+01   5.5721735057702471e-01   1.7946318415326679e+00   3.0151172177038141e+00   2.1531364199435306e+01   9.9999999999843492e-01
 -1.4612499999999999e+01   5.5721734392704791e-01   1.7946318629502713e+00   3.0151172629866623e+00   2.1531364507787710e+01   9.9999999999839717e-01
 -1.4600000000000000e+01   5.5721733738543022e-01   1.7946318840188826e+00   3.0151173075316420e+00   2.1531364811115619e+01   9.9999999999835931e-01
 -1.4587500000000000e+01   5.5721733055793510e-01   1.7946319060082210e+00   3.0151173540232969e+00   2.1531365127699363e+01   9.9999999999831990e-01
 -1.4574999999999999e+01   5.5721732378102840e-01   1.7946319278346297e+00   3.0151174001704710e+00   2.1531365441937378e+01   9.9999999999827993e-01
 -1.4562500000000000e+01   5.5721731696494559e-01   1.7946319497872134e+00   3.0151174465844139e+00   2.1531365757991942e+01   9.9999999999823908e-01
 -1.4549999999999999e+01   5.5721730993707519e-01   1.7946319724219029e+00   3.0151174944405192e+00   2.1531366083866878e+01   9.9999999999819678e-01
 -1.4537500000000000e+01   5.5721730293400540e-01   1.7946319949767173e+00   3.0151175421277454e+00   2.1531366408591833e+01   9.9999999999815414e-01
 -1.4525000000000000e+01   5.5721729575665213e-01   1.7946320180928481e+00   3.0151175910017503e+00   2.1531366741398131e+01   9.9999999999810973e-01
 -1.4512499999999999e+01   5.5721728855100261e-01   1.7946320413001131e+00   3.0151176400684379e+00   2.1531367075516496e+01   9.9999999999806510e-01
 -1.4500000000000000e+01   5.5721728120741754e-01   1.7946320649516285e+00   3.0151176900743941e+00   2.1531367416030786e+01   9.9999999999801847e-01
 -1.4487499999999999e+01   5.5721727392201847e-01   1.7946320884157445e+00   3.0151177396841340e+00   2.1531367753847054e+01   9.9999999999797173e-01
 -1.4475000000000000e+01   5.5721726634160329e-01   1.7946321128300209e+00   3.0151177913027789e+00   2.1531368105342906e+01   9.9999999999792277e-01
 -1.4462500000000000e+01   5.5721725887687745e-01   1.7946321368716966e+00   3.0151178421336402e+00   2.1531368451474364e+01   9.9999999999787370e-01
 -1.4449999999999999e+01   5.5721725118081966e-01   1.7946321616584251e+00   3.0151178945397503e+00   2.1531368808332441e+01   9.9999999999782263e-01
 -1.4437500000000000e+01   5.5721724341792067e-01   1.7946321866604298e+00   3.0151179474010141e+00   2.1531369168289878e+01   9.9999999999777089e-01
 -1.4424999999999999e+01   5.5721723556474134e-01   1.7946322119532017e+00   3.0151180008770395e+00   2.1531369532433516e+01   9.9999999999771760e-01
 -1.4412500000000000e+01   5.5721722762442394e-01   1.7946322375266202e+00   3.0151180549464294e+00   2.1531369900617655e+01   9.9999999999766320e-01
 -1.4400000000000000e+01   5.5721721962516491e-01   1.7946322632898730e+00   3.0151181094171808e+00   2.1531370271534854e+01   9.9999999999760758e-01
 -1.4387499999999999e+01   5.5721721149438852e-01   1.7946322894767053e+00   3.0151181647834964e+00   2.1531370648550375e+01   9.9999999999755029e-01
 -1.4375000000000000e+01   5.5721720333498870e-01   1.7946323157557260e+00   3.0151182203447227e+00   2.1531371026893133e+01   9.9999999999749223e-01
 -1.4362499999999999e+01   5.5721719497788869e-01   1.7946323426714814e+00   3.0151182772521832e+00   2.1531371414403043e+01   9.9999999999743217e-01
 -1.4350000000000000e+01   5.5721718657402264e-01   1.7946323697378572e+00   3.0151183344780956e+00   2.1531371804081445e+01   9.9999999999737088e-01
 -1.4337500000000000e+01   5.5721717807755844e-01   1.7946323971024654e+00   3.0151183923345530e+00   2.1531372198053521e+01   9.9999999999730838e-01
 -1.4324999999999999e+01   5.5721716946825806e-01   1.7946324248304864e+00   3.0151184509593656e+00   2.1531372597257697e+01   9.9999999999724398e-01
 -1.4312500000000000e+01   5.5721716070369298e-01   1.7946324530585700e+00   3.0151185106414493e+00   2.1531373003661329e+01   9.9999999999717826e-01
 -1.4299999999999999e+01   5.5721715190378673e-01   1.7946324814004782e+00   3.0151185705641876e+00   2.1531373411703697e+01   9.9999999999711109e-01
 -1.4287500000000000e+01   5.5721714300185976e-01   1.7946325100709659e+00   3.0151186311816334e+00   2.1531373824476656e+01   9.9999999999704225e-01
 -1.4275000000000000e+01   5.5721713393434225e-01   1.7946325392747731e+00   3.0151186929266638e+00   2.1531374244927875e+01   9.9999999999697142e-01
 -1.4262499999999999e+01   5.5721712479542740e-01   1.7946325687085312e+00   3.0151187551578729e+00   2.1531374668689711e+01   9.9999999999689926e-01
 -1.4250000000000000e+01   5.5721711556574949e-01   1.7946325984346112e+00   3.0151188180071302e+00   2.1531375096660138e+01   9.9999999999682543e-01
 -1.4237499999999999e+01   5.5721710629164178e-01   1.7946326283037874e+00   3.0151188811589313e+00   2.1531375526690724e+01   9.9999999999674993e-01
 -1.4225000000000000e+01   5.5721709678256237e-01   1.7946326589297397e+00   3.0151189459107663e+00   2.1531375967616700e+01   9.9999999999667211e-01
 -1.4212500000000000e+01   5.5721708717322938e-01   1.7946326898785803e+00   3.0151190113452757e+00   2.1531376413191332e+01   9.9999999999659273e-01
 -1.4199999999999999e+01   5.5721707748797811e-01   1.7946327210719324e+00   3.0151190772967484e+00   2.1531376862286212e+01   9.9999999999651135e-01
 -1.4187500000000000e+01   5.5721706768824975e-01   1.7946327526339829e+00   3.0151191440277501e+00   2.1531377316689277e+01   9.9999999999642819e-01
 -1.4174999999999999e+01   5.5721705779837516e-01   1.7946327844863690e+00   3.0151192113726002e+00   2.1531377775272325e+01   9.9999999999634293e-01
 -1.4162500000000000e+01   5.5721704770076930e-01   1.7946328170077976e+00   3.0151192801319913e+00   2.1531378243487652e+01   9.9999999999625577e-01
 -1.4150000000000000e+01   5.5721703756172414e-01   1.7946328496626915e+00   3.0151193491735619e+00   2.1531378713624477e+01   9.9999999999616640e-01
 -1.4137499999999999e+01   5.5721702726478206e-01   1.7946328828261262e+00   3.0151194192903277e+00   2.1531379191082817e+01   9.9999999999607492e-01
 -1.4125000000000000e+01   5.5721701685427172e-01   1.7946329163553323e+00   3.0151194901804339e+00   2.1531379673807194e+01   9.9999999999598133e-01
 -1.4112499999999999e+01   5.5721700635333204e-01   1.7946329501757861e+00   3.0151195616863160e+00   2.1531380160724684e+01   9.9999999999588540e-01
 -1.4100000000000000e+01   5.5721699570819960e-01   1.7946329844606439e+00   3.0151196341740754e+00   2.1531380654328242e+01   9.9999999999578726e-01
 -1.4087500000000000e+01   5.5721698490513905e-01   1.7946330192541431e+00   3.0151197077372420e+00   2.1531381155254760e+01   9.9999999999568667e-01
 -1.4074999999999999e+01   5.5721697400521852e-01   1.7946330543596014e+00   3.0151197819599744e+00   2.1531381660672572e+01   9.9999999999558375e-01
 -1.4062500000000000e+01   5.5721696299349555e-01   1.7946330898251444e+00   3.0151198569440227e+00   2.1531382171274547e+01   9.9999999999547851e-01
 -1.4049999999999999e+01   5.5721695180147823e-01   1.7946331258713639e+00   3.0151199331557805e+00   2.1531382690236580e+01   9.9999999999537059e-01
 -1.4037500000000000e+01   5.5721694052484116e-01   1.7946331621901206e+00   3.0151200099437547e+00   2.1531383213122339e+01   9.9999999999526024e-01
 -1.4025000000000000e+01   5.5721692907816522e-01   1.7946331990565241e+00   3.0151200878896041e+00   2.1531383743892626e+01   9.9999999999514733e-01
 -1.4012499999999999e+01   5.5721691757214475e-01   1.7946332361140607e+00   3.0151201662395586e+00   2.1531384277414652e+01   9.9999999999503153e-01
 -1.4000000000000000e+01   5.5721690583622840e-01   1.7946332739120265e+00   3.0151202461549831e+00   2.1531384821596710e+01   9.9999999999491296e-01
 -1.3987500000000001e+01   5.5721689399781427e-01   1.7946333120401095e+00   3.0151203267683639e+00   2.1531385370531478e+01   9.9999999999479161e-01
 -1.3975000000000000e+01   5.5721688202674857e-01   1.7946333505954259e+00   3.0151204082850320e+00   2.1531385925617162e+01   9.9999999999466749e-01
 -1.3962500000000000e+01   5.5721686987765773e-01   1.7946333897241113e+00   3.0151204910139580e+00   2.1531386488957686e+01   9.9999999999454015e-01
 -1.3949999999999999e+01   5.5721685760612927e-01   1.7946334292471344e+00   3.0151205745766196e+00   2.1531387057975511e+01   9.9999999999441003e-01
 -1.3937500000000000e+01   5.5721684523268966e-01   1.7946334690983854e+00   3.0151206588332427e+00   2.1531387631718847e+01   9.9999999999427669e-01
 -1.3925000000000001e+01   5.5721683266438082e-01   1.7946335095772554e+00   3.0151207444168229e+00   2.1531388214498065e+01   9.9999999999414013e-01
 -1.3912500000000000e+01   5.5721681993976058e-01   1.7946335505595608e+00   3.0151208310648014e+00   2.1531388804525278e+01   9.9999999999400035e-01
 -1.3900000000000000e+01   5.5721680707997168e-01   1.7946335919772072e+00   3.0151209186332077e+00   2.1531389400820117e+01   9.9999999999385714e-01
 -1.3887499999999999e+01   5.5721679407418845e-01   1.7946336338650606e+00   3.0151210071957588e+00   2.1531390003884564e+01   9.9999999999371059e-01
 -1.3875000000000000e+01   5.5721678089680082e-01   1.7946336763056041e+00   3.0151210969268454e+00   2.1531390614906122e+01   9.9999999999356060e-01
 -1.3862500000000001e+01   5.5721676755377569e-01   1.7946337192796200e+00   3.0151211877858368e+00   2.1531391233608115e+01   9.9999999999340694e-01
 -1.3850000000000000e+01   5.5721675411080485e-01   1.7946337625755342e+00   3.0151212793254056e+00   2.1531391856944488e+01   9.9999999999324984e-01
 -1.3837500000000000e+01   5.5721674045289127e-01   1.7946338065637188e+00   3.0151213723286214e+00   2.1531392490247526e+01   9.9999999999308875e-01
 -1.3824999999999999e+01   5.5721672664604283e-01   1.7946338510315818e+00   3.0151214663460055e+00   2.1531393130456522e+01   9.9999999999292377e-01
 -1.3812500000000000e+01   5.5721671270989781e-01   1.7946338959158736e+00   3.0151215612438316e+00   2.1531393776660860e+01   9.9999999999275502e-01
 -1.3800000000000001e+01   5.5721669856318168e-01   1.7946339414783565e+00   3.0151216575755364e+00   2.1531394432629156e+01   9.9999999999258227e-01
 -1.3787500000000000e+01   5.5721668426971616e-01   1.7946339875134791e+00   3.0151217549065272e+00   2.1531395095402068e+01   9.9999999999240530e-01
 -1.3775000000000000e+01   5.5721666980667883e-01   1.7946340340947458e+00   3.0151218533922126e+00   2.1531395766037846e+01   9.9999999999222422e-01
 -1.3762499999999999e+01   5.5721665513857110e-01   1.7946340813364876e+00   3.0151219532743201e+00   2.1531396446182523e+01   9.9999999999203870e-01
 -1.3750000000000000e+01   5.5721664035433427e-01   1.7946341289522503e+00   3.0151220539472057e+00   2.1531397131711984e+01   9.9999999999184874e-01
 -1.3737500000000001e+01   5.5721662535019556e-01   1.7946341772762560e+00   3.0151221561175077e+00   2.1531397827438063e+01   9.9999999999165434e-01
 -1.3725000000000000e+01   5.5721661017375068e-01   1.7946342261552128e+00   3.0151222594611240e+00   2.1531398531153798e+01   9.9999999999145517e-01
 -1.3712500000000000e+01   5.5721659484415020e-01   1.7946342755274425e+00   3.0151223638476496e+00   2.1531399241971194e+01   9.9999999999125133e-01
 -1.3699999999999999e+01   5.5721657930167701e-01   1.7946343255852768e+00   3.0151224696837264e+00   2.1531399962659275e+01   9.9999999999104261e-01
 -1.3687500000000000e+01   5.5721656357944005e-01   1.7946343762220811e+00   3.0151225767439001e+00   2.1531400691682812e+01   9.9999999999082889e-01
 -1.3675000000000001e+01   5.5721654769639162e-01   1.7946344273768160e+00   3.0151226848991155e+00   2.1531401428163008e+01   9.9999999999061018e-01
 -1.3662500000000000e+01   5.5721653158278650e-01   1.7946344792741105e+00   3.0151227946243009e+00   2.1531402175333874e+01   9.9999999999038602e-01
 -1.3650000000000000e+01   5.5721651532108818e-01   1.7946345316483738e+00   3.0151229053579232e+00   2.1531402929371662e+01   9.9999999999015676e-01
 -1.3637499999999999e+01   5.5721649885512603e-01   1.7946345846805154e+00   3.0151230174824746e+00   2.1531403692880950e+01   9.9999999998992195e-01
 -1.3625000000000000e+01   5.5721648219199449e-01   1.7946346383476863e+00   3.0151231309496458e+00   2.1531404465532777e+01   9.9999999998968170e-01
 -1.3612500000000001e+01   5.5721646532656599e-01   1.7946346926664010e+00   3.0151232457943533e+00   2.1531405247564898e+01   9.9999999998943545e-01
 -1.3600000000000000e+01   5.5721644826586914e-01   1.7946347476140223e+00   3.0151233619687359e+00   2.1531406038651408e+01   9.9999999998918343e-01
 -1.3587500000000000e+01   5.5721643099329243e-01   1.7946348032440516e+00   3.0151234795859088e+00   2.1531406839562564e+01   9.9999999998892553e-01
 -1.3574999999999999e+01   5.5721641352775952e-01   1.7946348594955410e+00   3.0151235985170119e+00   2.1531407649420892e+01   9.9999999998866118e-01
 -1.3562500000000000e+01   5.5721639581884885e-01   1.7946349165308844e+00   3.0151237191053899e+00   2.1531408470564394e+01   9.9999999998839051e-01
 -1.3550000000000001e+01   5.5721637793148182e-01   1.7946349741409882e+00   3.0151238409089620e+00   2.1531409299982727e+01   9.9999999998811351e-01
 -1.3537500000000000e+01   5.5721635986069951e-01   1.7946350323418241e+00   3.0151239639614955e+00   2.1531410137905834e+01   9.9999999998783007e-01
 -1.3525000000000000e+01   5.5721634153566890e-01   1.7946350913615252e+00   3.0151240887453268e+00   2.1531410987618166e+01   9.9999999998753986e-01
 -1.3512499999999999e+01   5.5721632298702439e-01   1.7946351511014269e+00   3.0151242150518507e+00   2.1531411847699236e+01   9.9999999998724265e-01
 -1.3500000000000000e+01   5.5721630425485325e-01   1.7946352114324196e+00   3.0151243426080949e+00   2.1531412716290244e+01   9.9999999998693834e-01
 -1.3487500000000001e+01   5.5721628527101241e-01   1.7946352725739729e+00   3.0151244718780776e+00   2.1531413596550912e+01   9.9999999998662681e-01
 -1.3475000000000000e+01   5.5721626609684838e-01   1.7946353343285073e+00   3.0151246024440610e+00   2.1531414485636663e+01   9.9999999998630795e-01
 -1.3462500000000000e+01   5.5721624664539460e-01   1.7946353969761175e+00   3.0151247348982420e+00   2.1531415387580051e+01   9.9999999998598132e-01
 -1.3449999999999999e+01   5.5721622699821738e-01   1.7946354602541019e+00   3.0151248686851968e+00   2.1531416298598923e+01   9.9999999998564681e-01
 -1.3437500000000000e+01   5.5721620710118736e-01   1.7946355243367960e+00   3.0151250041735178e+00   2.1531417221203210e+01   9.9999999998530442e-01
 -1.3425000000000001e+01   5.5721618698305797e-01   1.7946355891315928e+00   3.0151251411674096e+00   2.1531418154059640e+01   9.9999999998495392e-01
 -1.3412500000000000e+01   5.5721616664159024e-01   1.7946356546457041e+00   3.0151252796821182e+00   2.1531419097272032e+01   9.9999999998459510e-01
 -1.3400000000000000e+01   5.5721614601592317e-01   1.7946357210751458e+00   3.0151254201320747e+00   2.1531420053662448e+01   9.9999999998422751e-01
