# First column is time, second column is the perturbation of detonation velocity.
  0.0000000000000000e+00   1.0000000000000000e-10
  5.0000000000000001e-03   1.0024713439621038e-10
  1.0000000000000000e-02   1.0041198732578358e-10
  1.4999999999999999e-02   1.0059028321722967e-10
  2.0000000000000000e-02   1.0081076102312155e-10
  2.5000000000000001e-02   1.0106667660135079e-10
  2.9999999999999999e-02   1.0133644382283542e-10
  3.5000000000000003e-02   1.0159824618457183e-10
  4.0000000000000001e-02   1.0183924304765702e-10
  4.4999999999999998e-02   1.0205902973847912e-10
  5.0000000000000003e-02   1.0226776031034621e-10
  5.5000000000000000e-02   1.0248060832669598e-10
  5.9999999999999998e-02   1.0271112950224561e-10
  6.5000000000000002e-02   1.0296611532800934e-10
  7.0000000000000007e-02   1.0324366600711451e-10
  7.4999999999999997e-02   1.0353482450078786e-10
  8.0000000000000002e-02   1.0382775016161185e-10
  8.5000000000000006e-02   1.0411257050845676e-10
  8.9999999999999997e-02   1.0438499373129252e-10
  9.5000000000000001e-02   1.0464743461187798e-10
  1.0000000000000001e-01   1.0490747752409405e-10
  1.0500000000000000e-01   1.0517452794638584e-10
  1.1000000000000000e-01   1.0545610487797223e-10
  1.1500000000000000e-01   1.0575521664987177e-10
  1.2000000000000000e-01   1.0606970719341037e-10
  1.2500000000000000e-01   1.0639362404993324e-10
  1.3000000000000000e-01   1.0671988798993098e-10
  1.3500000000000001e-01   1.0704312284683726e-10
  1.4000000000000001e-01   1.0736155758677244e-10
  1.4499999999999999e-01   1.0767737296031185e-10
  1.4999999999999999e-01   1.0799551716515988e-10
  1.5500000000000000e-01   1.0832159251995097e-10
  1.6000000000000000e-01   1.0865970682300081e-10
  1.6500000000000001e-01   1.0901110694462413e-10
  1.7000000000000001e-01   1.0937403393620270e-10
  1.7500000000000002e-01   1.0974473210489292e-10
  1.7999999999999999e-01   1.1011911401424745e-10
  1.8500000000000000e-01   1.1049438470267389e-10
  1.9000000000000000e-01   1.1087001363420368e-10
  1.9500000000000001e-01   1.1124775129575030e-10
  2.0000000000000001e-01   1.1163077972911283e-10
  2.0500000000000002e-01   1.1202240554666220e-10
  2.0999999999999999e-01   1.1242483646897469e-10
  2.1500000000000000e-01   1.1283849663298839e-10
  2.2000000000000000e-01   1.1326208620874883e-10
  2.2500000000000001e-01   1.1369328826227649e-10
  2.3000000000000001e-01   1.1412979026921913e-10
  2.3500000000000001e-01   1.1457020175450019e-10
  2.3999999999999999e-01   1.1501453079203782e-10
  2.4500000000000000e-01   1.1546408301831761e-10
  2.5000000000000000e-01   1.1592087928182309e-10
  2.5500000000000000e-01   1.1638686082076732e-10
  2.6000000000000001e-01   1.1686320444334393e-10
  2.6500000000000001e-01   1.1734999620616578e-10
  2.7000000000000002e-01   1.1784635135013209e-10
  2.7500000000000002e-01   1.1835089035143150e-10
  2.8000000000000003e-01   1.1886235500917081e-10
  2.8500000000000003e-01   1.1938011703915657e-10
  2.8999999999999998e-01   1.1990439713550792e-10
  2.9499999999999998e-01   1.2043614037686206e-10
  2.9999999999999999e-01   1.2097662947276615e-10
  3.0499999999999999e-01   1.2152700850779085e-10
  3.1000000000000000e-01   1.2208790645279927e-10
  3.1500000000000000e-01   1.2265929294303514e-10
  3.2000000000000001e-01   1.2324059752895608e-10
  3.2500000000000001e-01   1.2383102062821304e-10
  3.3000000000000002e-01   1.2442989893550176e-10
  3.3500000000000002e-01   1.2503698113568504e-10
  3.4000000000000002e-01   1.2565251817129550e-10
  3.4500000000000003e-01   1.2627715215848704e-10
  3.5000000000000003e-01   1.2691166592399086e-10
  3.5499999999999998e-01   1.2755670173601140e-10
  3.5999999999999999e-01   1.2821255859722741e-10
  3.6499999999999999e-01   1.2887913674213979e-10
  3.7000000000000000e-01   1.2955603532256754e-10
  3.7500000000000000e-01   1.3024275061264104e-10
  3.8000000000000000e-01   1.3093888924211012e-10
  3.8500000000000001e-01   1.3164431382572834e-10
  3.9000000000000001e-01   1.3235917224158765e-10
  3.9500000000000002e-01   1.3308381077661848e-10
  4.0000000000000002e-01   1.3381861533911023e-10
  4.0500000000000003e-01   1.3456384776911241e-10
  4.1000000000000003e-01   1.3531953942401441e-10
  4.1500000000000004e-01   1.3608547628908651e-10
  4.1999999999999998e-01   1.3686127175375732e-10
  4.2499999999999999e-01   1.3764649036382801e-10
  4.2999999999999999e-01   1.3844077021987808e-10
  4.3500000000000000e-01   1.3924389744855525e-10
  4.4000000000000000e-01   1.4005580900337348e-10
  4.4500000000000001e-01   1.4087652959534119e-10
  4.5000000000000001e-01   1.4170607294456739e-10
  4.5500000000000002e-01   1.4254434805581389e-10
  4.6000000000000002e-01   1.4339110526033728e-10
  4.6500000000000002e-01   1.4424593824134247e-10
  4.7000000000000003e-01   1.4510833544876221e-10
  4.7500000000000003e-01   1.4597775628433338e-10
  4.7999999999999998e-01   1.4685370055129171e-10
  4.8499999999999999e-01   1.4773574540932476e-10
  4.8999999999999999e-01   1.4862353901289327e-10
  4.9500000000000000e-01   1.4951675755954666e-10
  5.0000000000000000e-01   1.5041504572352672e-10
  5.0500000000000000e-01   1.5131796480894577e-10
  5.1000000000000001e-01   1.5222496766420057e-10
  5.1500000000000001e-01   1.5313540742652303e-10
  5.2000000000000002e-01   1.5404857371783966e-10
  5.2500000000000002e-01   1.5496374023328333e-10
  5.3000000000000003e-01   1.5588020504190724e-10
  5.3500000000000003e-01   1.5679730964153472e-10
  5.4000000000000004e-01   1.5771443235070999e-10
  5.4500000000000004e-01   1.5863096188163627e-10
  5.5000000000000004e-01   1.5954626395745675e-10
  5.5500000000000005e-01   1.6045965527864183e-10
  5.6000000000000005e-01   1.6137039501749682e-10
  5.6500000000000006e-01   1.6227769644619523e-10
  5.7000000000000006e-01   1.6318075349588218e-10
  5.7500000000000007e-01   1.6407877198293767e-10
  5.7999999999999996e-01   1.6497099456505940e-10
  5.8499999999999996e-01   1.6585671201900499e-10
  5.8999999999999997e-01   1.6673525940437543e-10
  5.9499999999999997e-01   1.6760600158483431e-10
  5.9999999999999998e-01   1.6846831618687659e-10
  6.0499999999999998e-01   1.6932158224848202e-10
  6.0999999999999999e-01   1.7016517982380727e-10
  6.1499999999999999e-01   1.7099850111275388e-10
  6.2000000000000000e-01   1.7182096922679355e-10
  6.2500000000000000e-01   1.7263205814984900e-10
  6.3000000000000000e-01   1.7343130758209276e-10
  6.3500000000000001e-01   1.7421832884830878e-10
  6.4000000000000001e-01   1.7499280172994089e-10
  6.4500000000000002e-01   1.7575446543000899e-10
  6.5000000000000002e-01   1.7650310866712486e-10
  6.5500000000000003e-01   1.7723856359943781e-10
  6.6000000000000003e-01   1.7796070622329648e-10
  6.6500000000000004e-01   1.7866946303160290e-10
  6.7000000000000004e-01   1.7936482121902106e-10
  6.7500000000000004e-01   1.8004683849734776e-10
  6.8000000000000005e-01   1.8071564897243616e-10
  6.8500000000000005e-01   1.8137146322742123e-10
  6.9000000000000006e-01   1.8201456298506011e-10
  6.9500000000000006e-01   1.8264529258865011e-10
  7.0000000000000007e-01   1.8326405037670957e-10
  7.0499999999999996e-01   1.8387128261943108e-10
  7.0999999999999996e-01   1.8446748131494793e-10
  7.1499999999999997e-01   1.8505318542744038e-10
  7.1999999999999997e-01   1.8562898377301762e-10
  7.2499999999999998e-01   1.8619551721146932e-10
  7.2999999999999998e-01   1.8675347820780365e-10
  7.3499999999999999e-01   1.8730360693828471e-10
  7.3999999999999999e-01   1.8784668444033675e-10
  7.4500000000000000e-01   1.8838352432102969e-10
  7.5000000000000000e-01   1.8891496489114237e-10
  7.5500000000000000e-01   1.8944186321375225e-10
  7.6000000000000001e-01   1.8996509166399138e-10
  7.6500000000000001e-01   1.9048553657920666e-10
  7.7000000000000002e-01   1.9100409783374989e-10
  7.7500000000000002e-01   1.9152168795438142e-10
  7.8000000000000003e-01   1.9203922973001259e-10
  7.8500000000000003e-01   1.9255765197878723e-10
  7.9000000000000004e-01   1.9307788390948177e-10
  7.9500000000000004e-01   1.9360084905222710e-10
  8.0000000000000004e-01   1.9412745985445159e-10
  8.0500000000000005e-01   1.9465861373673482e-10
  8.1000000000000005e-01   1.9519519083542751e-10
  8.1500000000000006e-01   1.9573805306540393e-10
  8.2000000000000006e-01   1.9628804374377443e-10
  8.2500000000000007e-01   1.9684598695161638e-10
  8.3000000000000007e-01   1.9741268606627488e-10
  8.3499999999999996e-01   1.9798892134206821e-10
  8.3999999999999997e-01   1.9857544686394253e-10
  8.4499999999999997e-01   1.9917298747676224e-10
  8.4999999999999998e-01   1.9978223631347731e-10
  8.5499999999999998e-01   2.0040385332592353e-10
  8.5999999999999999e-01   2.0103846486931272e-10
  8.6499999999999999e-01   2.0168666405222370e-10
  8.7000000000000000e-01   2.0234901136505580e-10
  8.7500000000000000e-01   2.0302603510255718e-10
  8.8000000000000000e-01   2.0371823127885741e-10
  8.8500000000000001e-01   2.0442606300901833e-10
  8.9000000000000001e-01   2.0514995958568745e-10
  8.9500000000000002e-01   2.0589031561862316e-10
  9.0000000000000002e-01   2.0664749058748160e-10
  9.0500000000000003e-01   2.0742180900660723e-10
  9.1000000000000003e-01   2.0821356118563153e-10
  9.1500000000000004e-01   2.0902300437931705e-10
  9.2000000000000004e-01   2.0985036402406556e-10
  9.2500000000000004e-01   2.1069583478389334e-10
  9.3000000000000005e-01   2.1155958125381086e-10
  9.3500000000000005e-01   2.1244173833615395e-10
  9.4000000000000006e-01   2.1334241144786607e-10
  9.4500000000000006e-01   2.1426167678269425e-10
  9.5000000000000007e-01   2.1519958182453172e-10
  9.5500000000000007e-01   2.1615614620672882e-10
  9.5999999999999996e-01   2.1713136288302676e-10
  9.6499999999999997e-01   2.1812519947069860e-10
  9.6999999999999997e-01   2.1913759958301302e-10
  9.7499999999999998e-01   2.2016848399669392e-10
  9.7999999999999998e-01   2.2121775158269799e-10
  9.8499999999999999e-01   2.2228528002874456e-10
  9.8999999999999999e-01   2.2337092646001440e-10
  9.9500000000000000e-01   2.2447452809303988e-10
  1.0000000000000000e+00   2.2559590303122932e-10
  1.0050000000000001e+00   2.2673485124437636e-10
  1.0100000000000000e+00   2.2789115569797536e-10
  1.0150000000000001e+00   2.2906458354131860e-10
  1.0200000000000000e+00   2.3025488724582088e-10
  1.0249999999999999e+00   2.3146180560959189e-10
  1.0300000000000000e+00   2.3268506459747281e-10
  1.0349999999999999e+00   2.3392437804464117e-10
  1.0400000000000000e+00   2.3517944829361887e-10
  1.0449999999999999e+00   2.3644996684508058e-10
  1.0500000000000000e+00   2.3773561508141800e-10
  1.0549999999999999e+00   2.3903606507996963e-10
  1.0600000000000001e+00   2.4035098048822172e-10
  1.0649999999999999e+00   2.4168001740334659e-10
  1.0700000000000001e+00   2.4302282519310095e-10
  1.0750000000000000e+00   2.4437904721398011e-10
  1.0800000000000001e+00   2.4574832141609295e-10
  1.0850000000000000e+00   2.4713028085834548e-10
  1.0900000000000001e+00   2.4852455417927554e-10
  1.0950000000000000e+00   2.4993076607128909e-10
  1.1000000000000001e+00   2.5134853779021215e-10
  1.1050000000000000e+00   2.5277748770582281e-10
  1.1100000000000001e+00   2.5421723187343866e-10
  1.1150000000000000e+00   2.5566738459132650e-10
  1.1200000000000001e+00   2.5712755890852325e-10
  1.1250000000000000e+00   2.5859736706114954e-10
  1.1300000000000001e+00   2.6007642083603896e-10
  1.1350000000000000e+00   2.6156433187990554e-10
  1.1400000000000001e+00   2.6306071198314637e-10
  1.1450000000000000e+00   2.6456517336645747e-10
  1.1500000000000001e+00   2.6607732898728089e-10
  1.1550000000000000e+00   2.6759679286693873e-10
  1.1599999999999999e+00   2.6912318042478945e-10
  1.1650000000000000e+00   2.7065610879818419e-10
  1.1699999999999999e+00   2.7219519712857482e-10
  1.1750000000000000e+00   2.7374006680330968e-10
  1.1799999999999999e+00   2.7529034165518675e-10
  1.1850000000000001e+00   2.7684564813263872e-10
  1.1899999999999999e+00   2.7840561545853654e-10
  1.1950000000000001e+00   2.7996987579365987e-10
  1.2000000000000000e+00   2.8153806441330334e-10
  1.2050000000000001e+00   2.8310981989569138e-10
  1.2100000000000000e+00   2.8468478431277448e-10
  1.2150000000000001e+00   2.8626260341047322e-10
  1.2200000000000000e+00   2.8784292676734816e-10
  1.2250000000000001e+00   2.8942540792676286e-10
  1.2300000000000000e+00   2.9100970450509054e-10
  1.2350000000000001e+00   2.9259547828444817e-10
  1.2400000000000000e+00   2.9418239530068375e-10
  1.2450000000000001e+00   2.9577012593543957e-10
  1.2500000000000000e+00   2.9735834501616623e-10
  1.2550000000000001e+00   2.9894673192216968e-10
  1.2600000000000000e+00   3.0053497069038981e-10
  1.2650000000000001e+00   3.0212275011317985e-10
  1.2700000000000000e+00   3.0370976382209581e-10
  1.2750000000000001e+00   3.0529571035567395e-10
  1.2800000000000000e+00   3.0688029321361424e-10
  1.2849999999999999e+00   3.0846322090300279e-10
  1.2900000000000000e+00   3.1004420698308287e-10
  1.2949999999999999e+00   3.1162297011354062e-10
  1.3000000000000000e+00   3.1319923410813848e-10
  1.3049999999999999e+00   3.1477272799215529e-10
  1.3100000000000001e+00   3.1634318605978493e-10
  1.3149999999999999e+00   3.1791034792717612e-10
  1.3200000000000001e+00   3.1947395857816524e-10
  1.3250000000000000e+00   3.2103376840225119e-10
  1.3300000000000001e+00   3.2258953322694049e-10
  1.3350000000000000e+00   3.2414101434825308e-10
  1.3400000000000001e+00   3.2568797856339540e-10
  1.3450000000000000e+00   3.2723019820842536e-10
  1.3500000000000001e+00   3.2876745120175039e-10
  1.3550000000000000e+00   3.3029952109232221e-10
  1.3600000000000001e+00   3.3182619711018012e-10
  1.3650000000000000e+00   3.3334727421690248e-10
  1.3700000000000001e+00   3.3486255315448331e-10
  1.3750000000000000e+00   3.3637184049266203e-10
  1.3800000000000001e+00   3.3787494867617019e-10
  1.3850000000000000e+00   3.3937169607416190e-10
  1.3900000000000001e+00   3.4086190703401175e-10
  1.3950000000000000e+00   3.4234541194080104e-10
  1.4000000000000001e+00   3.4382204728255855e-10
  1.4050000000000000e+00   3.4529165572017258e-10
  1.4099999999999999e+00   3.4675408616026781e-10
  1.4150000000000000e+00   3.4820919382939066e-10
  1.4199999999999999e+00   3.4965684034849548e-10
  1.4250000000000000e+00   3.5109689380762910e-10
  1.4299999999999999e+00   3.5252922884150404e-10
  1.4350000000000001e+00   3.5395372670702761e-10
  1.4399999999999999e+00   3.5537027536369427e-10
  1.4450000000000001e+00   3.5677876955717293e-10
  1.4500000000000000e+00   3.5817911090565742e-10
  1.4550000000000001e+00   3.5957120798791950e-10
  1.4600000000000000e+00   3.6095497643170929e-10
  1.4650000000000001e+00   3.6233033900127070e-10
  1.4700000000000000e+00   3.6369722568318014e-10
  1.4750000000000001e+00   3.6505557377027630e-10
  1.4800000000000000e+00   3.6640532794389458e-10
  1.4850000000000001e+00   3.6774644035479980e-10
  1.4900000000000000e+00   3.6907887070306962e-10
  1.4950000000000001e+00   3.7040258631681867e-10
  1.5000000000000000e+00   3.7171756222920762e-10
  1.5050000000000001e+00   3.7302378125285443e-10
  1.5100000000000000e+00   3.7432123405064070e-10
  1.5150000000000001e+00   3.7560991920203940e-10
  1.5200000000000000e+00   3.7688984326437760e-10
  1.5250000000000001e+00   3.7816102082878799e-10
  1.5300000000000000e+00   3.7942347457085036e-10
  1.5350000000000001e+00   3.8067723529599129e-10
  1.5400000000000000e+00   3.8192234197960636e-10
  1.5449999999999999e+00   3.8315884180162771e-10
  1.5500000000000000e+00   3.8438679017500983e-10
  1.5549999999999999e+00   3.8560625076742557e-10
  1.5600000000000001e+00   3.8681729551542824e-10
  1.5649999999999999e+00   3.8802000463043131e-10
  1.5700000000000001e+00   3.8921446659605350e-10
  1.5750000000000000e+00   3.9040077815656775e-10
  1.5800000000000001e+00   3.9157904429633466e-10
  1.5850000000000000e+00   3.9274937821012125e-10
  1.5900000000000001e+00   3.9391190126413554e-10
  1.5950000000000000e+00   3.9506674294746503e-10
  1.6000000000000001e+00   3.9621404081347855e-10
  1.6050000000000000e+00   3.9735394041066602e-10
  1.6100000000000001e+00   3.9848659520241225e-10
  1.6150000000000000e+00   3.9961216647528392e-10
  1.6200000000000001e+00   4.0073082323555693e-10
  1.6250000000000000e+00   4.0184274209384522e-10
  1.6300000000000001e+00   4.0294810713779176e-10
  1.6350000000000000e+00   4.0404710979281257e-10
  1.6400000000000001e+00   4.0513994867086070e-10
  1.6450000000000000e+00   4.0622682940712641e-10
  1.6500000000000001e+00   4.0730796448454658e-10
  1.6550000000000000e+00   4.0838357304599445e-10
  1.6600000000000001e+00   4.0945388069407291e-10
  1.6650000000000000e+00   4.1051911927853199e-10
  1.6699999999999999e+00   4.1157952667145346e-10
  1.6750000000000000e+00   4.1263534653045456e-10
  1.6799999999999999e+00   4.1368682805025101e-10
  1.6850000000000001e+00   4.1473422570295605e-10
  1.6899999999999999e+00   4.1577779896750857e-10
  1.6950000000000001e+00   4.1681781204861141e-10
  1.7000000000000000e+00   4.1785453358556913e-10
  1.7050000000000001e+00   4.1888823635143562e-10
  1.7100000000000000e+00   4.1991919694293897e-10
  1.7150000000000001e+00   4.2094769546172730e-10
  1.7200000000000000e+00   4.2197401518756216e-10
  1.7250000000000001e+00   4.2299844224415948e-10
  1.7300000000000000e+00   4.2402126525842503e-10
  1.7350000000000001e+00   4.2504277501385312e-10
  1.7400000000000000e+00   4.2606326409885971e-10
  1.7450000000000001e+00   4.2708302655080754e-10
  1.7500000000000000e+00   4.2810235749647860e-10
  1.7550000000000001e+00   4.2912155278975212e-10
  1.7600000000000000e+00   4.3014090864726718e-10
  1.7650000000000001e+00   4.3116072128288273e-10
  1.7700000000000000e+00   4.3218128654176937e-10
  1.7750000000000001e+00   4.3320289953499355e-10
  1.7800000000000000e+00   4.3422585427545058e-10
  1.7850000000000001e+00   4.3525044331599421e-10
  1.7900000000000000e+00   4.3627695739057880e-10
  1.7949999999999999e+00   4.3730568505919679e-10
  1.8000000000000000e+00   4.3833691235736889e-10
  1.8049999999999999e+00   4.3937092245091849e-10
  1.8100000000000001e+00   4.4040799529675021e-10
  1.8149999999999999e+00   4.4144840731034325e-10
  1.8200000000000001e+00   4.4249243104066208e-10
  1.8250000000000000e+00   4.4354033485316613e-10
  1.8300000000000001e+00   4.4459238262158281e-10
  1.8350000000000000e+00   4.4564883342906685e-10
  1.8400000000000001e+00   4.4670994127933195e-10
  1.8450000000000000e+00   4.4777595481829960e-10
  1.8500000000000001e+00   4.4884711706677241e-10
  1.8550000000000000e+00   4.4992366516460819e-10
  1.8600000000000001e+00   4.5100583012684500e-10
  1.8650000000000000e+00   4.5209383661220666e-10
  1.8700000000000001e+00   4.5318790270439491e-10
  1.8750000000000000e+00   4.5428823970654978e-10
  1.8800000000000001e+00   4.5539505194922787e-10
  1.8850000000000000e+00   4.5650853661221435e-10
  1.8900000000000001e+00   4.5762888356044894e-10
  1.8950000000000000e+00   4.5875627519430636e-10
  1.9000000000000001e+00   4.5989088631444352e-10
  1.9050000000000000e+00   4.6103288400139043e-10
  1.9100000000000001e+00   4.6218242751004260e-10
  1.9150000000000000e+00   4.6333966817918383e-10
  1.9199999999999999e+00   4.6450474935614811e-10
  1.9250000000000000e+00   4.6567780633669898e-10
  1.9299999999999999e+00   4.6685896632018245e-10
  1.9350000000000001e+00   4.6804834837997064e-10
  1.9399999999999999e+00   4.6924606344918468e-10
  1.9450000000000001e+00   4.7045221432165731e-10
  1.9500000000000000e+00   4.7166689566805744e-10
  1.9550000000000001e+00   4.7289019406708177e-10
  1.9600000000000000e+00   4.7412218805158873e-10
  1.9650000000000001e+00   4.7536294816952345e-10
  1.9700000000000000e+00   4.7661253705946744e-10
  1.9750000000000001e+00   4.7787100954061219e-10
  1.9800000000000000e+00   4.7913841271693491e-10
  1.9850000000000001e+00   4.8041478609532653e-10
