# First column is time, second column is the perturbation of detonation velocity.
  0.0000000000000000e+00   1.0000000000000000e-10
  5.0000000000000001e-03   1.0031057373976757e-10
  1.0000000000000000e-02   1.0052258820267552e-10
  1.4999999999999999e-02   1.0070059029618129e-10
  2.0000000000000000e-02   1.0088236942721994e-10
  2.5000000000000001e-02   1.0108758641088275e-10
  2.9999999999999999e-02   1.0132356639089138e-10
  3.5000000000000003e-02   1.0158942395048672e-10
  4.0000000000000001e-02   1.0187918917638836e-10
  4.4999999999999998e-02   1.0218428600008635e-10
  5.0000000000000003e-02   1.0249551946500467e-10
  5.5000000000000000e-02   1.0280461929968009e-10
  5.9999999999999998e-02   1.0310533800310966e-10
  6.5000000000000002e-02   1.0339409377159253e-10
  7.0000000000000007e-02   1.0367016686964893e-10
  7.4999999999999997e-02   1.0393548973328100e-10
  8.0000000000000002e-02   1.0419410555646708e-10
  8.5000000000000006e-02   1.0445139896773568e-10
  8.9999999999999997e-02   1.0471321979830528e-10
  9.5000000000000001e-02   1.0498502373836388e-10
  1.0000000000000001e-01   1.0527114142480594e-10
  1.0500000000000000e-01   1.0557426215477180e-10
  1.1000000000000000e-01   1.0589518379643770e-10
  1.1500000000000000e-01   1.0623284155051129e-10
  1.2000000000000000e-01   1.0658459034066398e-10
  1.2500000000000000e-01   1.0694668369683015e-10
  1.3000000000000000e-01   1.0731486987991958e-10
  1.3500000000000001e-01   1.0768501597410955e-10
  1.4000000000000001e-01   1.0805367327437645e-10
  1.4499999999999999e-01   1.0841851132716585e-10
  1.4999999999999999e-01   1.0877857079065110e-10
  1.5500000000000000e-01   1.0913431321342999e-10
  1.6000000000000000e-01   1.0948747478648169e-10
  1.6500000000000001e-01   1.0984075713877805e-10
  1.7000000000000001e-01   1.1019740801982074e-10
  1.7500000000000002e-01   1.1056075600314833e-10
  1.7999999999999999e-01   1.1093376520794172e-10
  1.8500000000000000e-01   1.1131866886032349e-10
  1.9000000000000000e-01   1.1171672588337630e-10
  1.9500000000000001e-01   1.1212812509580390e-10
  2.0000000000000001e-01   1.1255203999767884e-10
  2.0500000000000002e-01   1.1298681657904463e-10
  2.0999999999999999e-01   1.1343025980514300e-10
  2.1500000000000000e-01   1.1387997342221513e-10
  2.2000000000000000e-01   1.1433370358642082e-10
  2.2500000000000001e-01   1.1478963964026787e-10
  2.3000000000000001e-01   1.1524663429435802e-10
  2.3500000000000001e-01   1.1570431889797786e-10
  2.3999999999999999e-01   1.1616310528376408e-10
  2.4500000000000000e-01   1.1662408155528257e-10
  2.5000000000000000e-01   1.1708882300181944e-10
  2.5500000000000000e-01   1.1755914934649823e-10
  2.6000000000000001e-01   1.1803686466535959e-10
  2.6500000000000001e-01   1.1852351619401344e-10
  2.7000000000000002e-01   1.1902020323631546e-10
  2.7500000000000002e-01   1.1952745851156183e-10
  2.8000000000000003e-01   1.2004521298360493e-10
  2.8500000000000003e-01   1.2057284319506875e-10
  2.8999999999999998e-01   1.2110928905454303e-10
  2.9499999999999998e-01   1.2165322132569712e-10
  2.9999999999999999e-01   1.2220323275849787e-10
  3.0499999999999999e-01   1.2275802537168962e-10
  3.1000000000000000e-01   1.2331656877343926e-10
  3.1500000000000000e-01   1.2387821001502471e-10
  3.2000000000000001e-01   1.2444272333510406e-10
  3.2500000000000001e-01   1.2501029705544069e-10
  3.3000000000000002e-01   1.2558146356055416e-10
  3.3500000000000002e-01   1.2615698557852107e-10
  3.4000000000000002e-01   1.2673771698831521e-10
  3.4500000000000003e-01   1.2732445858845025e-10
  3.5000000000000003e-01   1.2791782856325077e-10
  3.5499999999999998e-01   1.2851816406779785e-10
  3.5999999999999999e-01   1.2912546504507437e-10
  3.6499999999999999e-01   1.2973938494043486e-10
  3.7000000000000000e-01   1.3035926633707466e-10
  3.7500000000000000e-01   1.3098421361148101e-10
  3.8000000000000000e-01   1.3161319025142141e-10
  3.8500000000000001e-01   1.3224512599331501e-10
  3.9000000000000001e-01   1.3287901862323261e-10
  3.9500000000000002e-01   1.3351401704156120e-10
  4.0000000000000002e-01   1.3414947563864954e-10
  4.0500000000000003e-01   1.3478497458769444e-10
  4.1000000000000003e-01   1.3542030564101588e-10
  4.1500000000000004e-01   1.3605542771583114e-10
  4.1999999999999998e-01   1.3669040035997106e-10
  4.2499999999999999e-01   1.3732530564352124e-10
  4.2999999999999999e-01   1.3796016988868624e-10
  4.3500000000000000e-01   1.3859489591764941e-10
  4.4000000000000000e-01   1.3922921437371743e-10
  4.4500000000000001e-01   1.3986265953542386e-10
  4.5000000000000001e-01   1.4049457138809394e-10
  4.5500000000000002e-01   1.4112412207112806e-10
  4.6000000000000002e-01   1.4175036167347052e-10
  4.6500000000000002e-01   1.4237227609511793e-10
  4.7000000000000003e-01   1.4298884857305568e-10
  4.7500000000000003e-01   1.4359911655990649e-10
  4.7999999999999998e-01   1.4420221684873295e-10
  4.8499999999999999e-01   1.4479741391955516e-10
  4.8999999999999999e-01   1.4538410910162302e-10
  4.9500000000000000e-01   1.4596183091034893e-10
  5.0000000000000000e-01   1.4653020944569251e-10
  5.0500000000000000e-01   1.4708893970426105e-10
  5.1000000000000001e-01   1.4763773983296301e-10
  5.1500000000000001e-01   1.4817631063229410e-10
  5.2000000000000002e-01   1.4870430202483915e-10
  5.2500000000000002e-01   1.4922129087826546e-10
  5.3000000000000003e-01   1.4972677274058590e-10
  5.3500000000000003e-01   1.5022016799019263e-10
  5.4000000000000004e-01   1.5070084091670865e-10
  5.4500000000000004e-01   1.5116812859464002e-10
  5.5000000000000004e-01   1.5162137529102007e-10
  5.5500000000000005e-01   1.5205996767604244e-10
  5.6000000000000005e-01   1.5248336630206640e-10
  5.6500000000000006e-01   1.5289112960972393e-10
  5.7000000000000006e-01   1.5328292796281368e-10
  5.7500000000000007e-01   1.5365854670815456e-10
  5.7999999999999996e-01   1.5401787878396351e-10
  5.8499999999999996e-01   1.5436090875235471e-10
  5.8999999999999997e-01   1.5468769113772074e-10
  5.9499999999999997e-01   1.5499832650080162e-10
  5.9999999999999998e-01   1.5529293872535503e-10
  6.0499999999999998e-01   1.5557165656824766e-10
  6.0999999999999999e-01   1.5583460171423045e-10
  6.1499999999999999e-01   1.5608188451909933e-10
  6.2000000000000000e-01   1.5631360747915088e-10
  6.2500000000000000e-01   1.5652987539170493e-10
  6.3000000000000000e-01   1.5673081031116860e-10
  6.3500000000000001e-01   1.5691656885962935e-10
  6.4000000000000001e-01   1.5708735927283550e-10
  6.4500000000000002e-01   1.5724345575104701e-10
  6.5000000000000002e-01   1.5738520818951301e-10
  6.5500000000000003e-01   1.5751304609577221e-10
  6.6000000000000003e-01   1.5762747634645860e-10
  6.6500000000000004e-01   1.5772907527314251e-10
  6.7000000000000004e-01   1.5781847628263392e-10
  6.7500000000000004e-01   1.5789635472371877e-10
  6.8000000000000005e-01   1.5796341195530678e-10
  6.8500000000000005e-01   1.5802036053548787e-10
  6.9000000000000006e-01   1.5806791216066273e-10
  6.9500000000000006e-01   1.5810676949516166e-10
  7.0000000000000007e-01   1.5813762242398390e-10
  7.0499999999999996e-01   1.5816114862455387e-10
  7.0999999999999996e-01   1.5817801777557698e-10
  7.1499999999999997e-01   1.5818889827616050e-10
  7.1999999999999997e-01   1.5819446508734721e-10
  7.2499999999999998e-01   1.5819540725382099e-10
  7.2999999999999998e-01   1.5819243380905342e-10
  7.3499999999999999e-01   1.5818627707931063e-10
  7.3999999999999999e-01   1.5817769282719912e-10
  7.4500000000000000e-01   1.5816745714862523e-10
  7.5000000000000000e-01   1.5815636049092008e-10
  7.5500000000000000e-01   1.5814519953434887e-10
  7.6000000000000001e-01   1.5813476792896492e-10
  7.6500000000000001e-01   1.5812584697837937e-10
  7.7000000000000002e-01   1.5811919730807992e-10
  7.7500000000000002e-01   1.5811555236599145e-10
  7.8000000000000003e-01   1.5811561431176004e-10
  7.8500000000000003e-01   1.5812005250481367e-10
  7.9000000000000004e-01   1.5812950445001494e-10
  7.9500000000000004e-01   1.5814457875132490e-10
  8.0000000000000004e-01   1.5816585939699451e-10
  8.0500000000000005e-01   1.5819391057943590e-10
  8.1000000000000005e-01   1.5822928124807030e-10
  8.1500000000000006e-01   1.5827250869688363e-10
  8.2000000000000006e-01   1.5832412067879677e-10
  8.2500000000000007e-01   1.5838463578463860e-10
  8.3000000000000007e-01   1.5845456208854546e-10
  8.3499999999999996e-01   1.5853439430706817e-10
  8.3999999999999997e-01   1.5862460991423600e-10
  8.4499999999999997e-01   1.5872566477636844e-10
  8.4999999999999998e-01   1.5883798890707992e-10
  8.5499999999999998e-01   1.5896198289546882e-10
  8.5999999999999999e-01   1.5909801544100278e-10
  8.6499999999999999e-01   1.5924642225811673e-10
  8.7000000000000000e-01   1.5940750641849075e-10
  8.7500000000000000e-01   1.5958154000738066e-10
  8.8000000000000000e-01   1.5976876680787882e-10
  8.8500000000000001e-01   1.5996940561356849e-10
  8.9000000000000001e-01   1.6018365371771848e-10
  8.9500000000000002e-01   1.6041169013889127e-10
  9.0000000000000002e-01   1.6065367821271637e-10
  9.0500000000000003e-01   1.6090976729426665e-10
  9.1000000000000003e-01   1.6118009345647383e-10
  9.1500000000000004e-01   1.6146477921654084e-10
  9.2000000000000004e-01   1.6176393245421755e-10
  9.2500000000000004e-01   1.6207764478630288e-10
  9.3000000000000005e-01   1.6240598971940347e-10
  9.3500000000000005e-01   1.6274902091294260e-10
  9.4000000000000006e-01   1.6310677084858123e-10
  9.4500000000000006e-01   1.6347925012853770e-10
  9.5000000000000007e-01   1.6386644752630105e-10
  9.5500000000000007e-01   1.6426833080402410e-10
  9.5999999999999996e-01   1.6468484820690724e-10
  9.6499999999999997e-01   1.6511593045984786e-10
  9.6999999999999997e-01   1.6556149303574821e-10
  9.7499999999999998e-01   1.6602143844373716e-10
  9.7999999999999998e-01   1.6649565829968814e-10
  9.8499999999999999e-01   1.6698403498652547e-10
  9.8999999999999999e-01   1.6748644277973732e-10
  9.9500000000000000e-01   1.6800274839354506e-10
  1.0000000000000000e+00   1.6853281098371239e-10
  1.0050000000000001e+00   1.6907648171310507e-10
  1.0100000000000000e+00   1.6963360303708828e-10
  1.0150000000000001e+00   1.7020400789208550e-10
  1.0200000000000000e+00   1.7078751897026436e-10
  1.0249999999999999e+00   1.7138394823821073e-10
  1.0300000000000000e+00   1.7199309681267530e-10
  1.0349999999999999e+00   1.7261475524940519e-10
  1.0400000000000000e+00   1.7324870424025202e-10
  1.0449999999999999e+00   1.7389471565764767e-10
  1.0500000000000000e+00   1.7455255384141686e-10
  1.0549999999999999e+00   1.7522197699590811e-10
  1.0600000000000001e+00   1.7590273855805900e-10
  1.0649999999999999e+00   1.7659458840893555e-10
  1.0700000000000001e+00   1.7729727382959949e-10
  1.0750000000000000e+00   1.7801054014191978e-10
  1.0800000000000001e+00   1.7873413102002951e-10
  1.0850000000000000e+00   1.7946778850208322e-10
  1.0900000000000001e+00   1.8021125276894344e-10
  1.0950000000000000e+00   1.8096426178189915e-10
  1.1000000000000001e+00   1.8172655088283515e-10
  1.1050000000000000e+00   1.8249785245686063e-10
  1.1100000000000001e+00   1.8327789574072943e-10
  1.1150000000000000e+00   1.8406640683359035e-10
  1.1200000000000001e+00   1.8486310893400342e-10
  1.1250000000000000e+00   1.8566772279353693e-10
  1.1300000000000001e+00   1.8647996734723977e-10
  1.1350000000000000e+00   1.8729956045866629e-10
  1.1400000000000001e+00   1.8812621970448323e-10
  1.1450000000000000e+00   1.8895966312203220e-10
  1.1500000000000001e+00   1.8979960985205552e-10
  1.1550000000000000e+00   1.9064578062619935e-10
  1.1599999999999999e+00   1.9149789807197704e-10
  1.1650000000000000e+00   1.9235568683309407e-10
  1.1699999999999999e+00   1.9321887352686894e-10
  1.1750000000000000e+00   1.9408718657980081e-10
  1.1799999999999999e+00   1.9496035599483626e-10
  1.1850000000000001e+00   1.9583811310834917e-10
  1.1899999999999999e+00   1.9672019039120849e-10
  1.1950000000000001e+00   1.9760632133761399e-10
  1.2000000000000000e+00   1.9849624046954423e-10
  1.2050000000000001e+00   1.9938968346617930e-10
  1.2100000000000000e+00   2.0028638740919888e-10
  1.2150000000000001e+00   2.0118609111891580e-10
  1.2200000000000000e+00   2.0208853554475645e-10
  1.2250000000000001e+00   2.0299346416789804e-10
  1.2300000000000000e+00   2.0390062337428679e-10
  1.2350000000000001e+00   2.0480976276233192e-10
  1.2400000000000000e+00   2.0572063536008819e-10
  1.2450000000000001e+00   2.0663299773998756e-10
  1.2500000000000000e+00   2.0754661003318201e-10
  1.2550000000000001e+00   2.0846123585837625e-10
  1.2600000000000000e+00   2.0937664219000330e-10
  1.2650000000000001e+00   2.1029259919658189e-10
  1.2700000000000000e+00   2.1120888008154118e-10
  1.2750000000000001e+00   2.1212526095582816e-10
  1.2800000000000000e+00   2.1304152076491288e-10
  1.2849999999999999e+00   2.1395744128354270e-10
  1.2900000000000000e+00   2.1487280718118050e-10
  1.2949999999999999e+00   2.1578740615098941e-10
  1.3000000000000000e+00   2.1670102908681861e-10
  1.3049999999999999e+00   2.1761347028693227e-10
  1.3100000000000001e+00   2.1852452766079356e-10
  1.3149999999999999e+00   2.1943400291616261e-10
  1.3200000000000001e+00   2.2034170170774781e-10
  1.3250000000000000e+00   2.2124743373490569e-10
  1.3300000000000001e+00   2.2215101278342596e-10
  1.3350000000000000e+00   2.2305225671414799e-10
  1.3400000000000001e+00   2.2395098740799295e-10
  1.3450000000000000e+00   2.2484703068207505e-10
  1.3500000000000001e+00   2.2574021619433141e-10
  1.3550000000000000e+00   2.2663037735433884e-10
  1.3600000000000001e+00   2.2751735125582588e-10
  1.3650000000000000e+00   2.2840097864227412e-10
  1.3700000000000001e+00   2.2928110391163770e-10
  1.3750000000000000e+00   2.3015757516038162e-10
  1.3800000000000001e+00   2.3103024426158386e-10
  1.3850000000000000e+00   2.3189896696745693e-10
  1.3900000000000001e+00   2.3276360302385242e-10
  1.3950000000000000e+00   2.3362401628337554e-10
  1.4000000000000001e+00   2.3448007480466432e-10
  1.4050000000000000e+00   2.3533165092791752e-10
  1.4099999999999999e+00   2.3617862132044610e-10
  1.4150000000000000e+00   2.3702086699028754e-10
  1.4199999999999999e+00   2.3785827327015220e-10
  1.4250000000000000e+00   2.3869072977759515e-10
  1.4299999999999999e+00   2.3951813035987124e-10
  1.4350000000000001e+00   2.4034037303316984e-10
  1.4399999999999999e+00   2.4115735992575278e-10
  1.4450000000000001e+00   2.4196899723305814e-10
  1.4500000000000000e+00   2.4277519519036271e-10
  1.4550000000000001e+00   2.4357586806552756e-10
  1.4600000000000000e+00   2.4437093417112866e-10
  1.4650000000000001e+00   2.4516031589235254e-10
  1.4700000000000000e+00   2.4594393972478414e-10
  1.4750000000000001e+00   2.4672173631489620e-10
  1.4800000000000000e+00   2.4749364049577264e-10
  1.4850000000000001e+00   2.4825959131134205e-10
  1.4900000000000000e+00   2.4901953202398224e-10
  1.4950000000000001e+00   2.4977341010252231e-10
  1.5000000000000000e+00   2.5052117719007409e-10
  1.5050000000000001e+00   2.5126278905344362e-10
  1.5100000000000000e+00   2.5199820551778469e-10
  1.5150000000000001e+00   2.5272739039144401e-10
  1.5200000000000000e+00   2.5345031138647410e-10
  1.5250000000000001e+00   2.5416694004003769e-10
  1.5300000000000000e+00   2.5487725164098701e-10
  1.5350000000000001e+00   2.5558122516444835e-10
  1.5400000000000000e+00   2.5627884321550428e-10
  1.5449999999999999e+00   2.5697009198130310e-10
  1.5500000000000000e+00   2.5765496118937850e-10
  1.5549999999999999e+00   2.5833344406882528e-10
  1.5600000000000001e+00   2.5900553731037788e-10
  1.5649999999999999e+00   2.5967124102142432e-10
  1.5700000000000001e+00   2.6033055867252301e-10
  1.5750000000000000e+00   2.6098349703296414e-10
  1.5800000000000001e+00   2.6163006609417191e-10
  1.5850000000000000e+00   2.6227027898109332e-10
  1.5900000000000001e+00   2.6290415185297600e-10
  1.5950000000000000e+00   2.6353170379593487e-10
  1.6000000000000001e+00   2.6415295671033922e-10
  1.6050000000000000e+00   2.6476793519624654e-10
  1.6100000000000001e+00   2.6537666643988280e-10
  1.6150000000000000e+00   2.6597918010357197e-10
  1.6200000000000001e+00   2.6657550822066515e-10
  1.6250000000000000e+00   2.6716568509603420e-10
  1.6300000000000001e+00   2.6774974721173318e-10
  1.6350000000000000e+00   2.6832773313660712e-10
  1.6400000000000001e+00   2.6889968343805735e-10
  1.6450000000000000e+00   2.6946564059390551e-10
  1.6500000000000001e+00   2.7002564890235791e-10
  1.6550000000000000e+00   2.7057975438842345e-10
  1.6600000000000001e+00   2.7112800470571972e-10
  1.6650000000000000e+00   2.7167044903331051e-10
  1.6699999999999999e+00   2.7220713796796218e-10
  1.6750000000000000e+00   2.7273812341287052e-10
  1.6799999999999999e+00   2.7326345846441757e-10
  1.6850000000000001e+00   2.7378319729880867e-10
  1.6899999999999999e+00   2.7429739506048753e-10
  1.6950000000000001e+00   2.7480610775404163e-10
  1.7000000000000000e+00   2.7530939214093655e-10
  1.7050000000000001e+00   2.7580730564190688e-10
  1.7100000000000000e+00   2.7629990624527565e-10
  1.7150000000000001e+00   2.7678725242094050e-10
  1.7200000000000000e+00   2.7726940303932304e-10
  1.7250000000000001e+00   2.7774641729429141e-10
  1.7300000000000000e+00   2.7821835462894416e-10
  1.7350000000000001e+00   2.7868527466320999e-10
  1.7400000000000000e+00   2.7914723712243430e-10
  1.7450000000000001e+00   2.7960430176645942e-10
  1.7500000000000000e+00   2.8005652831909984e-10
  1.7550000000000001e+00   2.8050397639831459e-10
  1.7600000000000000e+00   2.8094670544772402e-10
  1.7650000000000001e+00   2.8138477467036768e-10
  1.7700000000000000e+00   2.8181824296572506e-10
  1.7750000000000001e+00   2.8224716887101064e-10
  1.7800000000000000e+00   2.8267161050761872e-10
  1.7850000000000001e+00   2.8309162553335794e-10
  1.7900000000000000e+00   2.8350727110081648e-10
  1.7949999999999999e+00   2.8391860382188422e-10
  1.8000000000000000e+00   2.8432567973816024e-10
  1.8049999999999999e+00   2.8472855429674436e-10
  1.8100000000000001e+00   2.8512728233076362e-10
  1.8149999999999999e+00   2.8552191804393606e-10
  1.8200000000000001e+00   2.8591251499852734e-10
  1.8250000000000000e+00   2.8629912610618803e-10
  1.8300000000000001e+00   2.8668180362135158e-10
  1.8350000000000000e+00   2.8706059913709307e-10
  1.8400000000000001e+00   2.8743556358356470e-10
  1.8450000000000000e+00   2.8780674722929920e-10
  1.8500000000000001e+00   2.8817419968579916e-10
  1.8550000000000000e+00   2.8853796991587524e-10
  1.8600000000000001e+00   2.8889810624617581e-10
  1.8650000000000000e+00   2.8925465638425699e-10
  1.8700000000000001e+00   2.8960766744039951e-10
  1.8750000000000000e+00   2.8995718595420885e-10
  1.8800000000000001e+00   2.9030325792585528e-10
  1.8850000000000000e+00   2.9064592885165363e-10
  1.8900000000000001e+00   2.9098524376356098e-10
  1.8950000000000000e+00   2.9132124727209769e-10
  1.9000000000000001e+00   2.9165398361218732e-10
  1.9050000000000000e+00   2.9198349669144390e-10
  1.9100000000000001e+00   2.9230983014052016e-10
  1.9150000000000000e+00   2.9263302736524199e-10
  1.9199999999999999e+00   2.9295313160037641e-10
  1.9250000000000000e+00   2.9327018596499372e-10
  1.9299999999999999e+00   2.9358423351948208e-10
  1.9350000000000001e+00   2.9389531732432857e-10
  1.9399999999999999e+00   2.9420348050079993e-10
  1.9450000000000001e+00   2.9450876629363498e-10
  1.9500000000000000e+00   2.9481121813580156e-10
  1.9550000000000001e+00   2.9511087971528885e-10
  1.9600000000000000e+00   2.9540779504380554e-10
  1.9650000000000001e+00   2.9570200852716256e-10
  1.9700000000000000e+00   2.9599356503703059e-10
  1.9750000000000001e+00   2.9628250998370423e-10
  1.9800000000000000e+00   2.9656888938947309e-10
  1.9850000000000001e+00   2.9685274996219801e-10
