# ZND solution.
# Columns are: spatial coordinate; specific volume; density;
# flow velocity in lab frame; pressure; reaction progress variable.
 -1.5150000000000000e+01   5.5721746169784858e-01   1.7946314836455186e+00   3.0151164610293830e+00   2.1531359046879963e+01   9.9999999999900002e-01
 -1.5100000000000000e+01   5.5721746169784858e-01   1.7946314836455186e+00   3.0151164610293830e+00   2.1531359046879963e+01   9.9999999999900002e-01
 -1.5050000000000001e+01   5.5721746169784858e-01   1.7946314836455186e+00   3.0151164610293830e+00   2.1531359046879963e+01   9.9999999999900002e-01
 -1.5000000000000000e+01   5.5721746169784858e-01   1.7946314836455186e+00   3.0151164610293830e+00   2.1531359046879963e+01   9.9999999999900002e-01
 -1.4950000000000001e+01   5.5721746169784858e-01   1.7946314836455186e+00   3.0151164610293830e+00   2.1531359046879963e+01   9.9999999999900002e-01
 -1.4900000000000000e+01   5.5721746169784858e-01   1.7946314836455186e+00   3.0151164610293830e+00   2.1531359046879963e+01   9.9999999999900002e-01
 -1.4850000000000000e+01   5.5721745647388810e-01   1.7946315004703397e+00   3.0151164966018094e+00   2.1531359289109499e+01   9.9999999999897626e-01
 -1.4800000000000001e+01   5.5721743487407815e-01   1.7946315700368982e+00   3.0151166436851673e+00   2.1531360290669891e+01   9.9999999999887512e-01
 -1.4750000000000000e+01   5.5721741222518695e-01   1.7946316429822411e+00   3.0151167979122171e+00   2.1531361340875076e+01   9.9999999999876388e-01
 -1.4700000000000001e+01   5.5721738849834290e-01   1.7946317193993560e+00   3.0151169594795597e+00   2.1531362441063798e+01   9.9999999999864175e-01
 -1.4650000000000000e+01   5.5721736361233842e-01   1.7946317995497889e+00   3.0151171289401759e+00   2.1531363595001562e+01   9.9999999999850753e-01
 -1.4600000000000000e+01   5.5721733744621749e-01   1.7946318838231048e+00   3.0151173071177126e+00   2.1531364808296978e+01   9.9999999999835987e-01
 -1.4550000000000001e+01   5.5721731002404840e-01   1.7946319721417878e+00   3.0151174938482774e+00   2.1531366079834022e+01   9.9999999999819733e-01
 -1.4500000000000000e+01   5.5721728134569659e-01   1.7946320645062726e+00   3.0151176891327864e+00   2.1531367409618930e+01   9.9999999999801914e-01
 -1.4450000000000001e+01   5.5721725123358545e-01   1.7946321614884821e+00   3.0151178941804431e+00   2.1531368805885748e+01   9.9999999999782319e-01
 -1.4400000000000000e+01   5.5721721967549931e-01   1.7946322631277609e+00   3.0151181090744301e+00   2.1531370269200902e+01   9.9999999999760802e-01
 -1.4350000000000000e+01   5.5721718659803077e-01   1.7946323696605342e+00   3.0151183343146131e+00   2.1531371802968213e+01   9.9999999999737155e-01
 -1.4300000000000001e+01   5.5721715199539923e-01   1.7946324811054213e+00   3.0151185699403547e+00   2.1531373407455721e+01   9.9999999999711164e-01
 -1.4250000000000000e+01   5.5721711565314180e-01   1.7946325981531461e+00   3.0151188174120347e+00   2.1531375092607846e+01   9.9999999999682598e-01
 -1.4200000000000001e+01   5.5721707757134631e-01   1.7946327208034281e+00   3.0151190767290545e+00   2.1531376858420519e+01   9.9999999999651212e-01
 -1.4150000000000000e+01   5.5721703762136976e-01   1.7946328494705903e+00   3.0151193487674064e+00   2.1531378710858771e+01   9.9999999999616707e-01
 -1.4100000000000000e+01   5.5721699576509809e-01   1.7946329842773905e+00   3.0151196337866266e+00   2.1531380651689922e+01   9.9999999999578804e-01
 -1.4050000000000001e+01   5.5721695192812726e-01   1.7946331254634644e+00   3.0151199322933673e+00   2.1531382684363997e+01   9.9999999999537170e-01
 -1.4000000000000000e+01   5.5721690587074657e-01   1.7946332738008537e+00   3.0151202459199324e+00   2.1531384819996138e+01   9.9999999999491340e-01
 -1.3949999999999999e+01   5.5721685763905715e-01   1.7946334291410833e+00   3.0151205743523981e+00   2.1531387056448679e+01   9.9999999999441014e-01
 -1.3900000000000000e+01   5.5721680709567745e-01   1.7946335919266234e+00   3.0151209185262600e+00   2.1531389400091857e+01   9.9999999999385725e-01
 -1.3850000000000000e+01   5.5721675411080485e-01   1.7946337625755342e+00   3.0151212793254056e+00   2.1531391856944488e+01   9.9999999999324984e-01
 -1.3800000000000001e+01   5.5721669856318168e-01   1.7946339414783565e+00   3.0151216575755364e+00   2.1531394432629156e+01   9.9999999999258249e-01
 -1.3750000000000000e+01   5.5721664036796870e-01   1.7946341289083376e+00   3.0151220538543626e+00   2.1531397131079771e+01   9.9999999999184908e-01
 -1.3699999999999999e+01   5.5721657932768964e-01   1.7946343255014976e+00   3.0151224695065943e+00   2.1531399961453097e+01   9.9999999999104294e-01
 -1.3650000000000000e+01   5.5721651535831007e-01   1.7946345315284928e+00   3.0151229051044615e+00   2.1531402927645722e+01   9.9999999999015721e-01
 -1.3600000000000000e+01   5.5721644828954109e-01   1.7946347475377817e+00   3.0151233618075421e+00   2.1531406037553765e+01   9.9999999998918399e-01
 -1.3550000000000001e+01   5.5721637798793533e-01   1.7946349739591676e+00   3.0151238405245433e+00   2.1531409297365038e+01   9.9999999998811440e-01
 -1.3500000000000000e+01   5.5721630429793667e-01   1.7946352112936601e+00   3.0151243423147194e+00   2.1531412714292511e+01   9.9999999998693889e-01
 -1.3449999999999999e+01   5.5721622703931650e-01   1.7946354601217334e+00   3.0151248684053336e+00   2.1531416296693202e+01   9.9999999998564726e-01
 -1.3400000000000000e+01   5.5721614601592317e-01   1.7946357210751458e+00   3.0151254201320747e+00   2.1531420053662448e+01   9.9999999998422762e-01
 -1.3350000000000000e+01   5.5721606112577515e-01   1.7946359944823618e+00   3.0151259981893839e+00   2.1531423989929031e+01   9.9999999998266798e-01
 -1.3300000000000001e+01   5.5721597211138829e-01   1.7946362811726770e+00   3.0151266043305931e+00   2.1531428117432213e+01   9.9999999998095390e-01
 -1.3250000000000000e+01   5.5721587883576040e-01   1.7946365815873500e+00   3.0151272394886148e+00   2.1531432442524650e+01   9.9999999997907063e-01
 -1.3199999999999999e+01   5.5721578104873404e-01   1.7946368965320818e+00   3.0151279053668900e+00   2.1531436976805871e+01   9.9999999997700095e-01
 -1.3150000000000000e+01   5.5721567853183818e-01   1.7946372267105224e+00   3.0151286034530913e+00   2.1531441730406147e+01   9.9999999997472666e-01
 -1.3100000000000000e+01   5.5721557105902775e-01   1.7946375728507173e+00   3.0151293352864674e+00   2.1531446713806954e+01   9.9999999997222755e-01
 -1.3050000000000001e+01   5.5721545840979581e-01   1.7946379356628777e+00   3.0151301023685542e+00   2.1531451937232966e+01   9.9999999996948119e-01
 -1.3000000000000000e+01   5.5721534029842756e-01   1.7946383160672326e+00   3.0151309066449197e+00   2.1531457413932472e+01   9.9999999996646316e-01
 -1.2949999999999999e+01   5.5721521651518036e-01   1.7946387147393286e+00   3.0151317495438010e+00   2.1531463153631019e+01   9.9999999996314681e-01
 -1.2900000000000000e+01   5.5721508673708198e-01   1.7946391327193962e+00   3.0151326332644697e+00   2.1531469171304490e+01   9.9999999995950251e-01
 -1.2850000000000000e+01   5.5721495069813431e-01   1.7946395708641711e+00   3.0151335596182323e+00   2.1531475479286936e+01   9.9999999995549782e-01
 -1.2800000000000001e+01   5.5721480809354940e-01   1.7946400301553229e+00   3.0151345306805353e+00   2.1531482091711055e+01   9.9999999995109701e-01
 -1.2750000000000000e+01   5.5721465861515873e-01   1.7946405115854136e+00   3.0151355485498446e+00   2.1531489022866289e+01   9.9999999994626110e-01
 -1.2699999999999999e+01   5.5721450189742272e-01   1.7946410163317850e+00   3.0151366157152917e+00   2.1531496289702329e+01   9.9999999994094690e-01
 -1.2650000000000000e+01   5.5721433762852346e-01   1.7946415453987605e+00   3.0151377343001937e+00   2.1531503906677841e+01   9.9999999993510724e-01
 -1.2600000000000000e+01   5.5721416541617852e-01   1.7946421000498229e+00   3.0151389069757877e+00   2.1531511891982543e+01   9.9999999992869004e-01
 -1.2550000000000001e+01   5.5721398490463936e-01   1.7946426814307941e+00   3.0151401361645336e+00   2.1531520262112128e+01   9.9999999992163846e-01
 -1.2500000000000000e+01   5.5721379567337315e-01   1.7946432908961549e+00   3.0151414247300403e+00   2.1531529036566251e+01   9.9999999991388955e-01
 -1.2449999999999999e+01   5.5721359730299591e-01   1.7946439297966921e+00   3.0151427755280911e+00   2.1531538234791309e+01   9.9999999990537403e-01
 -1.2400000000000000e+01   5.5721338934896902e-01   1.7946445995642157e+00   3.0151441915857613e+00   2.1531547877400090e+01   9.9999999989601651e-01
 -1.2350000000000000e+01   5.5721317135203319e-01   1.7946453016779556e+00   3.0151456760303654e+00   2.1531557985687961e+01   9.9999999988573340e-01
 -1.2300000000000001e+01   5.5721294283996181e-01   1.7946460376589133e+00   3.0151472320775179e+00   2.1531568581551568e+01   9.9999999987443322e-01
 -1.2250000000000000e+01   5.5721270328659611e-01   1.7946468092018018e+00   3.0151488633100842e+00   2.1531579689388341e+01   9.9999999986201593e-01
 -1.2199999999999999e+01   5.5721245217783033e-01   1.7946476179625239e+00   3.0151505732288539e+00   2.1531591333036825e+01   9.9999999984837085e-01
 -1.2150000000000000e+01   5.5721218893480584e-01   1.7946484658055473e+00   3.0151523657755508e+00   2.1531603539338079e+01   9.9999999983337606e-01
 -1.2100000000000000e+01   5.5721191299648942e-01   1.7946493545379392e+00   3.0151542447705157e+00   2.1531616334306623e+01   9.9999999981689858e-01
 -1.2050000000000001e+01   5.5721162372273803e-01   1.7946502862215743e+00   3.0151562145727868e+00   2.1531629747625214e+01   9.9999999979879139e-01
 -1.2000000000000000e+01   5.5721132049163213e-01   1.7946512628596485e+00   3.0151582794173093e+00   2.1531643808131602e+01   9.9999999977889387e-01
 -1.1949999999999999e+01   5.5721100261804390e-01   1.7946522866589525e+00   3.0151604439694437e+00   2.1531658547594446e+01   9.9999999975702869e-01
 -1.1900000000000000e+01   5.5721066939712915e-01   1.7946533598897958e+00   3.0151627130288090e+00   2.1531673998696625e+01   9.9999999973300102e-01
 -1.1850000000000000e+01   5.5721032008604332e-01   1.7946544849448982e+00   3.0151650916537860e+00   2.1531690195883058e+01   9.9999999970659736e-01
 -1.1800000000000001e+01   5.5720995390926553e-01   1.7946556643222442e+00   3.0151675851252642e+00   2.1531707175113830e+01   9.9999999967758246e-01
 -1.1750000000000000e+01   5.5720957005804717e-01   1.7946569006268598e+00   3.0151701989503970e+00   2.1531724973889762e+01   9.9999999964569841e-01
 -1.1699999999999999e+01   5.5720916766800166e-01   1.7946581966429949e+00   3.0151729390152031e+00   2.1531743632291541e+01   9.9999999961066122e-01
 -1.1650000000000000e+01   5.5720874585540792e-01   1.7946595552171996e+00   3.0151758113373588e+00   2.1531763191296388e+01   9.9999999957215902e-01
 -1.1600000000000000e+01   5.5720830367231700e-01   1.7946609794029198e+00   3.0151788223718983e+00   2.1531783694859694e+01   9.9999999952984919e-01
 -1.1550000000000001e+01   5.5720784014220814e-01   1.7946624723456590e+00   3.0151819787684144e+00   2.1531805188261693e+01   9.9999999948335505e-01
 -1.1500000000000000e+01   5.5720735423138390e-01   1.7946640373751126e+00   3.0151852875658443e+00   2.1531827719433846e+01   9.9999999943226314e-01
 -1.1449999999999999e+01   5.5720684485959626e-01   1.7946656779709478e+00   3.0151887561201094e+00   2.1531851338466115e+01   9.9999999937611861e-01
 -1.1400000000000000e+01   5.5720631089252703e-01   1.7946673977870258e+00   3.0151923921553205e+00   2.1531876097955639e+01   9.9999999931442174e-01
 -1.1350000000000000e+01   5.5720575114720605e-01   1.7946692006339573e+00   3.0151962037268829e+00   2.1531902052755491e+01   9.9999999924662353e-01
 -1.1300000000000001e+01   5.5720516437826673e-01   1.7946710905233743e+00   3.0152001993150885e+00   2.1531929260612007e+01   9.9999999917212035e-01
 -1.1250000000000000e+01   5.5720454927953311e-01   1.7946730716628256e+00   3.0152043878143098e+00   2.1531957782091190e+01   9.9999999909024984e-01
 -1.1199999999999999e+01   5.5720390447706170e-01   1.7946751484781938e+00   3.0152087785803801e+00   2.1531987680901352e+01   9.9999999900028225e-01
 -1.1150000000000000e+01   5.5720322854470317e-01   1.7946773255635797e+00   3.0152133813246267e+00   2.1532019023171529e+01   9.9999999890141755e-01
 -1.1100000000000001e+01   5.5720251997492221e-01   1.7946796077752962e+00   3.0152182063125736e+00   2.1532051878804541e+01   9.9999999879277546e-01
 -1.1050000000000001e+01   5.5720177719470221e-01   1.7946820001806481e+00   3.0152232642556371e+00   2.1532086320739509e+01   9.9999999867338940e-01
 -1.1000000000000000e+01   5.5720099855024641e-01   1.7946845081072187e+00   3.0152285664153045e+00   2.1532122425661246e+01   9.9999999854219646e-01
 -1.0949999999999999e+01   5.5720018231093027e-01   1.7946871371301480e+00   3.0152341245762195e+00   2.1532160273816984e+01   9.9999999839802900e-01
 -1.0900000000000000e+01   5.5719932666027605e-01   1.7946898931012154e+00   3.0152399511076413e+00   2.1532199949434879e+01   9.9999999823960428e-01
 -1.0850000000000001e+01   5.5719842969502631e-01   1.7946927821518344e+00   3.0152460589697530e+00   2.1532241540766972e+01   9.9999999806551165e-01
 -1.0800000000000001e+01   5.5719748941936809e-01   1.7946958107116699e+00   3.0152524617529926e+00   2.1532285140357001e+01   9.9999999787420168e-01
 -1.0750000000000000e+01   5.5719650374423424e-01   1.7946989855109043e+00   3.0152591736828094e+00   2.1532330845072806e+01   9.9999999766397152e-01
 -1.0699999999999999e+01   5.5719547047520657e-01   1.7947023136192146e+00   3.0152662097020393e+00   2.1532378756667242e+01   9.9999999743295021e-01
 -1.0650000000000000e+01   5.5719438731939697e-01   1.7947058024236278e+00   3.0152735854240444e+00   2.1532428981459116e+01   9.9999999717908206e-01
 -1.0600000000000001e+01   5.5719325185777591e-01   1.7947094597176689e+00   3.0152813173211461e+00   2.1532481631616267e+01   9.9999999690010588e-01
 -1.0550000000000001e+01   5.5719206157214274e-01   1.7947132936145116e+00   3.0152894225409672e+00   2.1532536823905009e+01   9.9999999659353944e-01
 -1.0500000000000000e+01   5.5719081381140412e-01   1.7947173126556180e+00   3.0152979191360609e+00   2.1532594681253734e+01   9.9999999625665370e-01
 -1.0449999999999999e+01   5.5718950580271498e-01   1.7947215257748801e+00   3.0153068259880449e+00   2.1532655332236352e+01   9.9999999588645017e-01
 -1.0400000000000000e+01   5.5718813463345074e-01   1.7947259423567148e+00   3.0153161629303629e+00   2.1532718911908184e+01   9.9999999547963314e-01
 -1.0350000000000000e+01   5.5718669725531045e-01   1.7947305722228801e+00   3.0153259507203423e+00   2.1532785561615729e+01   9.9999999503258141e-01
 -1.0300000000000001e+01   5.5718519046982251e-01   1.7947354256791945e+00   3.0153362111378947e+00   2.1532855429668743e+01   9.9999999454131527e-01
 -1.0250000000000000e+01   5.5718361092411739e-01   1.7947405135291921e+00   3.0153469670143003e+00   2.1532928671536244e+01   9.9999999400146178e-01
 -1.0199999999999999e+01   5.5718195510801194e-01   1.7947458470835547e+00   3.0153582422520615e+00   2.1533005449981726e+01   9.9999999340821510e-01
 -1.0150000000000000e+01   5.5718021933251316e-01   1.7947514382293990e+00   3.0153700619712835e+00   2.1533085936059894e+01   9.9999999275629425e-01
 -1.0100000000000000e+01   5.5717839973953542e-01   1.7947572993990268e+00   3.0153824524435016e+00   2.1533170308666115e+01   9.9999999203989531e-01
 -1.0050000000000001e+01   5.5717649227927335e-01   1.7947634436428634e+00   3.0153954412457633e+00   2.1533258755585585e+01   9.9999999125264094e-01
 -1.0000000000000000e+01   5.5717449270667885e-01   1.7947698846408677e+00   3.0154090572846157e+00   2.1533351473656708e+01   9.9999999038752208e-01
 -9.9499999999999993e+00   5.5717239657385342e-01   1.7947766367271025e+00   3.0154233308479110e+00   2.1533448669123842e+01   9.9999998943683677e-01
 -9.9000000000000004e+00   5.5717019921645483e-01   1.7947837149335950e+00   3.0154382936973687e+00   2.1533550558267613e+01   9.9999998839212134e-01
 -9.8499999999999996e+00   5.5716789574629733e-01   1.7947911350142531e+00   3.0154539791189667e+00   2.1533657367748038e+01   9.9999998724407446e-01
 -9.8000000000000007e+00   5.5716548103458896e-01   1.7947989134989499e+00   3.0154704220370827e+00   2.1533769335381788e+01   9.9999998598247442e-01
 -9.7500000000000000e+00   5.5716294971021441e-01   1.7948070676991519e+00   3.0154876590261908e+00   2.1533886710221811e+01   9.9999998459608863e-01
 -9.6999999999999993e+00   5.5716029613734108e-01   1.7948156157801634e+00   3.0155057284633497e+00   2.1534009753595715e+01   9.9999998307257243e-01
 -9.6500000000000004e+00   5.5715751441323269e-01   1.7948245767682849e+00   3.0155246705430923e+00   2.1534138739207158e+01   9.9999998139836088e-01
 -9.5999999999999996e+00   5.5715459834447834e-01   1.7948339706275180e+00   3.0155445274392938e+00   2.1534273954238063e+01   9.9999997955854592e-01
 -9.5500000000000007e+00   5.5715154144120171e-01   1.7948438182783593e+00   3.0155653433446012e+00   2.1534415699617149e+01   9.9999997753674474e-01
 -9.5000000000000000e+00   5.5714833690031895e-01   1.7948541416518899e+00   3.0155871645844421e+00   2.1534564290796233e+01   9.9999997531495377e-01
 -9.4499999999999993e+00   5.5714497758679138e-01   1.7948649637503395e+00   3.0156100397446810e+00   2.1534720058619531e+01   9.9999997287338727e-01
 -9.4000000000000004e+00   5.5714145602397980e-01   1.7948763086783461e+00   3.0156340197373033e+00   2.1534883349770912e+01   9.9999997019030262e-01
 -9.3499999999999996e+00   5.5713776437175888e-01   1.7948882017136687e+00   3.0156591579494432e+00   2.1535054527788716e+01   9.9999996724180473e-01
 -9.3000000000000007e+00   5.5713389441092875e-01   1.7949006693576315e+00   3.0156855103495337e+00   2.1535233973788561e+01   9.9999996400163382e-01
 -9.2500000000000000e+00   5.5712983752532108e-01   1.7949137393930206e+00   3.0157131356091549e+00   2.1535422087293089e+01   9.9999996044093153e-01
 -9.1999999999999993e+00   5.5712558468136508e-01   1.7949274409501883e+00   3.0157420952421772e+00   2.1535619287179440e+01   9.9999995652798335e-01
 -9.1500000000000004e+00   5.5712112640880151e-01   1.7949418045694880e+00   3.0157724537360910e+00   2.1535826012573541e+01   9.9999995222793647e-01
 -9.0999999999999996e+00   5.5711645278074939e-01   1.7949568622658238e+00   3.0158042786877401e+00   2.1536042723774386e+01   9.9999994750248766e-01
 -9.0500000000000007e+00   5.5711155338625562e-01   1.7949726476174543e+00   3.0158376409902465e+00   2.1536269903526890e+01   9.9999994230954259e-01
 -9.0000000000000000e+00   5.5710641731499344e-01   1.7949891958156896e+00   3.0158726149372024e+00   2.1536508057731385e+01   9.9999993660284059e-01
 -8.9499999999999993e+00   5.5710103312569936e-01   1.7950065437670242e+00   3.0159092784376016e+00   2.1536757716907189e+01   9.9999993033154144e-01
 -8.9000000000000004e+00   5.5709538882435139e-01   1.7950247301639282e+00   3.0159477131644330e+00   2.1537019437204446e+01   9.9999992343977206e-01
 -8.8499999999999996e+00   5.5708947183607149e-01   1.7950437955759087e+00   3.0159880047460090e+00   2.1537293801706976e+01   9.9999991586612735e-01
 -8.8000000000000007e+00   5.5708326897783189e-01   1.7950637825380342e+00   3.0160302429518229e+00   2.1537581421697869e+01   9.9999990754312351e-01
 -8.7500000000000000e+00   5.5707676642759629e-01   1.7950847356510080e+00   3.0160745219026803e+00   2.1537882938090362e+01   9.9999989839659498e-01
 -8.6999999999999993e+00   5.5706994969418755e-01   1.7951067016789650e+00   3.0161209402758846e+00   2.1538199022825047e+01   9.9999988834503206e-01
 -8.6500000000000004e+00   5.5706280358513438e-01   1.7951297296538535e+00   3.0161696015241830e+00   2.1538530380360783e+01   9.9999987729885442e-01
 -8.5999999999999996e+00   5.5705531217160742e-01   1.7951538709892749e+00   3.0162206141145353e+00   2.1538877749300578e+01   9.9999986515961004e-01
