# First column is time, second column is the perturbation of detonation velocity.
  0.0000000000000000e+00   1.0000000000000000e-10
  5.0000000000000001e-03   1.0022881760065249e-10
  1.0000000000000000e-02   1.0045416273630730e-10
  1.4999999999999999e-02   1.0068606973032060e-10
  2.0000000000000000e-02   1.0092246144586926e-10
  2.5000000000000001e-02   1.0116158961108648e-10
  2.9999999999999999e-02   1.0140403993673494e-10
  3.5000000000000003e-02   1.0165018523688345e-10
  4.0000000000000001e-02   1.0189997454500607e-10
  4.4999999999999998e-02   1.0215338098325199e-10
  5.0000000000000003e-02   1.0241048543648712e-10
  5.5000000000000000e-02   1.0267135571293839e-10
  5.9999999999999998e-02   1.0293603168480267e-10
  6.5000000000000002e-02   1.0320456706868923e-10
  7.0000000000000007e-02   1.0347701221434309e-10
  7.4999999999999997e-02   1.0375342045045685e-10
  8.0000000000000002e-02   1.0403384334624302e-10
  8.5000000000000006e-02   1.0431833173104013e-10
  8.9999999999999997e-02   1.0460693812062585e-10
  9.5000000000000001e-02   1.0489971318947746e-10
  1.0000000000000001e-01   1.0519670839186227e-10
  1.0500000000000000e-01   1.0549797436585511e-10
  1.1000000000000000e-01   1.0580356135876543e-10
  1.1500000000000000e-01   1.0611351933593717e-10
  1.2000000000000000e-01   1.0642789736298766e-10
  1.2500000000000000e-01   1.0674674406101744e-10
  1.3000000000000000e-01   1.0707010710328610e-10
  1.3500000000000001e-01   1.0739803330853053e-10
  1.4000000000000001e-01   1.0773056848933326e-10
  1.4499999999999999e-01   1.0806775726659769e-10
  1.4999999999999999e-01   1.0840964303941599e-10
  1.5500000000000000e-01   1.0875626775984936e-10
  1.6000000000000000e-01   1.0910767184675598e-10
  1.6500000000000001e-01   1.0946389401054546e-10
  1.7000000000000001e-01   1.0982497109237848e-10
  1.7500000000000002e-01   1.1019093791110741e-10
  1.7999999999999999e-01   1.1056182706994014e-10
  1.8500000000000000e-01   1.1093766878571442e-10
  1.9000000000000000e-01   1.1131849068778559e-10
  1.9500000000000001e-01   1.1170431761822513e-10
  2.0000000000000001e-01   1.1209517142200740e-10
  2.0500000000000002e-01   1.1249107072390388e-10
  2.0999999999999999e-01   1.1289203070205670e-10
  2.1500000000000000e-01   1.1329806284746159e-10
  2.2000000000000000e-01   1.1370917471740544e-10
  2.2500000000000001e-01   1.1412536967877023e-10
  2.3000000000000001e-01   1.1454664664223934e-10
  2.3500000000000001e-01   1.1497299978875797e-10
  2.3999999999999999e-01   1.1540441828662350e-10
  2.4500000000000000e-01   1.1584088600131605e-10
  2.5000000000000000e-01   1.1628238119734605e-10
  2.5500000000000000e-01   1.1672887623314832e-10
  2.6000000000000001e-01   1.1718033724964697e-10
  2.6500000000000001e-01   1.1763672385295199e-10
  2.7000000000000002e-01   1.1809798879236118e-10
  2.7500000000000002e-01   1.1856407763435723e-10
  2.8000000000000003e-01   1.1903492843383938e-10
  2.8500000000000003e-01   1.1951047140375521e-10
  2.8999999999999998e-01   1.1999062858446549e-10
  2.9499999999999998e-01   1.2047531351439029e-10
  2.9999999999999999e-01   1.2096443090352778e-10
  3.0499999999999999e-01   1.2145787631167336e-10
  3.1000000000000000e-01   1.2195553583328146e-10
  3.1500000000000000e-01   1.2245728579106028e-10
  3.2000000000000001e-01   1.2296299244058031e-10
  3.2500000000000001e-01   1.2347251168828920e-10
  3.3000000000000002e-01   1.2398568882550257e-10
  3.3500000000000002e-01   1.2450235828107412e-10
  3.4000000000000002e-01   1.2502234339557694e-10
  3.4500000000000003e-01   1.2554545621996346e-10
  3.5000000000000003e-01   1.2607149734176793e-10
  3.5499999999999998e-01   1.2660025574201963e-10
  3.5999999999999999e-01   1.2713150868609958e-10
  3.6499999999999999e-01   1.2766502165182817e-10
  3.7000000000000000e-01   1.2820054829809719e-10
  3.7500000000000000e-01   1.2873783047734803e-10
  3.8000000000000000e-01   1.2927659829517080e-10
  3.8500000000000001e-01   1.2981657022021708e-10
  3.9000000000000001e-01   1.3035745324751444e-10
  3.9500000000000002e-01   1.3089894311812095e-10
  4.0000000000000002e-01   1.3144072459785936e-10
  4.0500000000000003e-01   1.3198247181763180e-10
  4.1000000000000003e-01   1.3252384867754441e-10
  4.1500000000000004e-01   1.3306450931671711e-10
  4.1999999999999998e-01   1.3360409865030307e-10
  4.2499999999999999e-01   1.3414225297479921e-10
  4.2999999999999999e-01   1.3467860064227267e-10
  4.3500000000000000e-01   1.3521276280361682e-10
  4.4000000000000000e-01   1.3574435422040706e-10
  4.4500000000000001e-01   1.3627298414434056e-10
  4.5000000000000001e-01   1.3679825726263706e-10
  4.5500000000000002e-01   1.3731977470715385e-10
  4.6000000000000002e-01   1.3783713512430539e-10
  4.6500000000000002e-01   1.3834993580223614e-10
  4.7000000000000003e-01   1.3885777385103536e-10
  4.7500000000000003e-01   1.3936024743113333e-10
  4.7999999999999998e-01   1.3985695702439732e-10
  4.8499999999999999e-01   1.4034750674184060e-10
  4.8999999999999999e-01   1.4083150566130513e-10
  4.9500000000000000e-01   1.4130856918794929e-10
  5.0000000000000000e-01   1.4177832042993701e-10
  5.0500000000000000e-01   1.4224039158130243e-10
  5.1000000000000001e-01   1.4269442530367461e-10
  5.1500000000000001e-01   1.4314007609828395e-10
  5.2000000000000002e-01   1.4357701165952190e-10
  5.2500000000000002e-01   1.4400491420127116e-10
  5.3000000000000003e-01   1.4442348174723429e-10
  5.3500000000000003e-01   1.4483242937661953e-10
  5.4000000000000004e-01   1.4523149041676166e-10
  5.4500000000000004e-01   1.4562041757455873e-10
  5.5000000000000004e-01   1.4599898399900433e-10
  5.5500000000000005e-01   1.4636698426758644e-10
  5.6000000000000005e-01   1.4672423528987984e-10
  5.6500000000000006e-01   1.4707057712229685e-10
  5.7000000000000006e-01   1.4740587368865769e-10
  5.7500000000000007e-01   1.4773001340199953e-10
  5.7999999999999996e-01   1.4804290968382001e-10
  5.8499999999999996e-01   1.4834450137780759e-10
  5.8999999999999997e-01   1.4863475305592587e-10
  5.9499999999999997e-01   1.4891365521560124e-10
  5.9999999999999998e-01   1.4918122436760793e-10
  6.0499999999999998e-01   1.4943750301509366e-10
  6.0999999999999999e-01   1.4968255952500831e-10
  6.1499999999999999e-01   1.4991648789398243e-10
  6.2000000000000000e-01   1.5013940741146227e-10
  6.2500000000000000e-01   1.5035146222359985e-10
  6.3000000000000000e-01   1.5055282080203550e-10
  6.3500000000000001e-01   1.5074367532230684e-10
  6.4000000000000001e-01   1.5092424095711869e-10
  6.4500000000000002e-01   1.5109475509017515e-10
  6.5000000000000002e-01   1.5125547645663498e-10
  6.5500000000000003e-01   1.5140668421656741e-10
  6.6000000000000003e-01   1.5154867696802418e-10
  6.6500000000000004e-01   1.5168177170649326e-10
  6.7000000000000004e-01   1.5180630273761392e-10
  6.7500000000000004e-01   1.5192262055005201e-10
  6.8000000000000005e-01   1.5203109065540822e-10
  6.8500000000000005e-01   1.5213209240194713e-10
  6.9000000000000006e-01   1.5222601776878928e-10
  6.9500000000000006e-01   1.5231327014702911e-10
  7.0000000000000007e-01   1.5239426311400161e-10
  7.0499999999999996e-01   1.5246941920666709e-10
  7.0999999999999996e-01   1.5253916869976340e-10
  7.1499999999999997e-01   1.5260394839408244e-10
  7.1999999999999997e-01   1.5266420041984789e-10
  7.2499999999999998e-01   1.5272037105983065e-10
  7.2999999999999998e-01   1.5277290959646487e-10
  7.3499999999999999e-01   1.5282226718683486e-10
  7.3999999999999999e-01   1.5286889576903509e-10
  7.4500000000000000e-01   1.5291324700301808e-10
  7.5000000000000000e-01   1.5295577124866882e-10
  7.5500000000000000e-01   1.5299691658347621e-10
  7.6000000000000001e-01   1.5303712786181725e-10
  7.6500000000000001e-01   1.5307684581751949e-10
  7.7000000000000002e-01   1.5311650621103936e-10
  7.7500000000000002e-01   1.5315653902227772e-10
  7.8000000000000003e-01   1.5319736768975943e-10
  7.8500000000000003e-01   1.5323940839662098e-10
  7.9000000000000004e-01   1.5328306940359144e-10
  7.9500000000000004e-01   1.5332875042891622e-10
  8.0000000000000004e-01   1.5337684207494183e-10
  8.0500000000000005e-01   1.5342772530088680e-10
  8.1000000000000005e-01   1.5348177094113996e-10
  8.1500000000000006e-01   1.5353933926825923e-10
  8.2000000000000006e-01   1.5360077959970063e-10
  8.2500000000000007e-01   1.5366642994718596e-10
  8.3000000000000007e-01   1.5373661670749057e-10
  8.3499999999999996e-01   1.5381165439335870e-10
  8.3999999999999997e-01   1.5389184540315361e-10
  8.4499999999999997e-01   1.5397747982779918e-10
  8.4999999999999998e-01   1.5406883529351046e-10
  8.5499999999999998e-01   1.5416617683877074e-10
  8.5999999999999999e-01   1.5426975682398774e-10
  8.6499999999999999e-01   1.5437981487224135e-10
  8.7000000000000000e-01   1.5449657783952666e-10
  8.7500000000000000e-01   1.5462025981290084e-10
  8.8000000000000000e-01   1.5475106213494261e-10
  8.8500000000000001e-01   1.5488917345295852e-10
  8.9000000000000001e-01   1.5503476979138529e-10
  8.9500000000000002e-01   1.5518801464586419e-10
  9.0000000000000002e-01   1.5534905909750352e-10
  9.0500000000000003e-01   1.5551804194586970e-10
  9.1000000000000003e-01   1.5569508985929700e-10
  9.1500000000000004e-01   1.5588031754114502e-10
  9.2000000000000004e-01   1.5607382791067566e-10
  9.2500000000000004e-01   1.5627571229727492e-10
  9.3000000000000005e-01   1.5648605064678480e-10
  9.3500000000000005e-01   1.5670491173876846e-10
  9.4000000000000006e-01   1.5693235341357767e-10
  9.4500000000000006e-01   1.5716842280814131e-10
  9.5000000000000007e-01   1.5741315659945157e-10
  9.5500000000000007e-01   1.5766658125476154e-10
  9.5999999999999996e-01   1.5792871328757678e-10
  9.6499999999999997e-01   1.5819955951855603e-10
  9.6999999999999997e-01   1.5847911734049391e-10
  9.7499999999999998e-01   1.5876737498660448e-10
  9.7999999999999998e-01   1.5906431180137442e-10
  9.8499999999999999e-01   1.5936989851328901e-10
  9.8999999999999999e-01   1.5968409750879837e-10
  9.9500000000000000e-01   1.6000686310691075e-10
  1.0000000000000000e+00   1.6033814183385900e-10
  1.0050000000000001e+00   1.6067787269732181e-10
  1.0100000000000000e+00   1.6102598745971258e-10
  1.0150000000000001e+00   1.6138241091009510e-10
  1.0200000000000000e+00   1.6174706113431703e-10
  1.0249999999999999e+00   1.6211984978298457e-10
  1.0300000000000000e+00   1.6250068233693318e-10
  1.0349999999999999e+00   1.6288945836989106e-10
  1.0400000000000000e+00   1.6328607180803709e-10
  1.0449999999999999e+00   1.6369041118621505e-10
  1.0500000000000000e+00   1.6410235990056193e-10
  1.0549999999999999e+00   1.6452179645735226e-10
  1.0600000000000001e+00   1.6494859471787990e-10
  1.0649999999999999e+00   1.6538262413921170e-10
  1.0700000000000001e+00   1.6582375001068230e-10
  1.0750000000000000e+00   1.6627183368600743e-10
  1.0800000000000001e+00   1.6672673281091866e-10
  1.0850000000000000e+00   1.6718830154623442e-10
  1.0900000000000001e+00   1.6765639078630219e-10
  1.0950000000000000e+00   1.6813084837275717e-10
  1.1000000000000001e+00   1.6861151930356187e-10
  1.1050000000000000e+00   1.6909824593730012e-10
  1.1100000000000001e+00   1.6959086819270989e-10
  1.1150000000000000e+00   1.7008922374345298e-10
  1.1200000000000001e+00   1.7059314820812902e-10
  1.1250000000000000e+00   1.7110247533554884e-10
  1.1300000000000001e+00   1.7161703718529144e-10
  1.1350000000000000e+00   1.7213666430357588e-10
  1.1400000000000001e+00   1.7266118589448787e-10
  1.1450000000000000e+00   1.7319042998660229e-10
  1.1500000000000001e+00   1.7372422359505795e-10
  1.1550000000000000e+00   1.7426239287913077e-10
  1.1599999999999999e+00   1.7480476329537071e-10
  1.1650000000000000e+00   1.7535115974636584e-10
  1.1699999999999999e+00   1.7590140672519145e-10
  1.1750000000000000e+00   1.7645532845562178e-10
  1.1799999999999999e+00   1.7701274902816948e-10
  1.1850000000000001e+00   1.7757349253202813e-10
  1.1899999999999999e+00   1.7813738318298811e-10
  1.1950000000000001e+00   1.7870424544740587e-10
  1.2000000000000000e+00   1.7927390416229490e-10
  1.2050000000000001e+00   1.7984618465162200e-10
  1.2100000000000000e+00   1.8042091283887818e-10
  1.2150000000000001e+00   1.8099791535600322e-10
  1.2200000000000000e+00   1.8157701964873661e-10
  1.2250000000000001e+00   1.8215805407847056e-10
  1.2300000000000000e+00   1.8274084802067800e-10
  1.2350000000000001e+00   1.8332523195998678e-10
  1.2400000000000000e+00   1.8391103758197040e-10
  1.2450000000000001e+00   1.8449809786172498e-10
  1.2500000000000000e+00   1.8508624714930110e-10
  1.2550000000000001e+00   1.8567532125205215e-10
  1.2600000000000000e+00   1.8626515751396589e-10
  1.2650000000000001e+00   1.8685559489204232e-10
  1.2700000000000000e+00   1.8744647402977204e-10
  1.2750000000000001e+00   1.8803763732777689e-10
  1.2800000000000000e+00   1.8862892901166629e-10
  1.2849999999999999e+00   1.8922019519716226e-10
  1.2900000000000000e+00   1.8981128395254409e-10
  1.2949999999999999e+00   1.9040204535845990e-10
  1.3000000000000000e+00   1.9099233156515297e-10
  1.3049999999999999e+00   1.9158199684714135e-10
  1.3100000000000001e+00   1.9217089765540285e-10
  1.3149999999999999e+00   1.9275889266708939e-10
  1.3200000000000001e+00   1.9334584283282103e-10
  1.3250000000000000e+00   1.9393161142158940e-10
  1.3300000000000001e+00   1.9451606406329818e-10
  1.3350000000000000e+00   1.9509906878898279e-10
  1.3400000000000001e+00   1.9568049606872376e-10
  1.3450000000000000e+00   1.9626021884729567e-10
  1.3500000000000001e+00   1.9683811257756357e-10
  1.3550000000000000e+00   1.9741405525165689e-10
  1.3600000000000001e+00   1.9798792742994517e-10
  1.3650000000000000e+00   1.9855961226782846e-10
  1.3700000000000001e+00   1.9912899554036689e-10
  1.3750000000000000e+00   1.9969596566476870e-10
  1.3800000000000001e+00   2.0026041372074717e-10
  1.3850000000000000e+00   2.0082223346876819e-10
  1.3900000000000001e+00   2.0138132136620303e-10
  1.3950000000000000e+00   2.0193757658139785e-10
  1.4000000000000001e+00   2.0249090100567538e-10
  1.4050000000000000e+00   2.0304119926328679e-10
  1.4099999999999999e+00   2.0358837871931877e-10
  1.4150000000000000e+00   2.0413234948557648e-10
  1.4199999999999999e+00   2.0467302442445552e-10
  1.4250000000000000e+00   2.0521031915080820e-10
  1.4299999999999999e+00   2.0574415203183668e-10
  1.4350000000000001e+00   2.0627444418500541e-10
  1.4399999999999999e+00   2.0680111947400252e-10
  1.4450000000000001e+00   2.0732410450276909e-10
  1.4500000000000000e+00   2.0784332860760059e-10
  1.4550000000000001e+00   2.0835872384735256e-10
  1.4600000000000000e+00   2.0887022499175838e-10
  1.4650000000000001e+00   2.0937776950789461e-10
  1.4700000000000000e+00   2.0988129754480121e-10
  1.4750000000000001e+00   2.1038075191629180e-10
  1.4800000000000000e+00   2.1087607808197564e-10
  1.4850000000000001e+00   2.1136722412652088e-10
  1.4900000000000000e+00   2.1185414073718722e-10
  1.4950000000000001e+00   2.1233678117966139e-10
  1.5000000000000000e+00   2.1281510127222605e-10
  1.5050000000000001e+00   2.1328905935830727e-10
  1.5100000000000000e+00   2.1375861627742324e-10
  1.5150000000000001e+00   2.1422373533459017e-10
  1.5200000000000000e+00   2.1468438226821948e-10
  1.5250000000000001e+00   2.1514052521655124e-10
  1.5300000000000000e+00   2.1559213468267700e-10
  1.5350000000000001e+00   2.1603918349819249e-10
  1.5400000000000000e+00   2.1648164678554253e-10
  1.5449999999999999e+00   2.1691950191910129e-10
  1.5500000000000000e+00   2.1735272848505445e-10
  1.5549999999999999e+00   2.1778130824013232e-10
  1.5600000000000001e+00   2.1820522506926220e-10
  1.5649999999999999e+00   2.1862446494219866e-10
  1.5700000000000001e+00   2.1903901586919666e-10
  1.5750000000000000e+00   2.1944886785579217e-10
  1.5800000000000001e+00   2.1985401285676595e-10
  1.5850000000000000e+00   2.2025444472934877e-10
  1.5900000000000001e+00   2.2065015918575204e-10
  1.5950000000000000e+00   2.2104115374508517e-10
  1.6000000000000001e+00   2.2142742768474218e-10
  1.6050000000000000e+00   2.2180898199133061e-10
  1.6100000000000001e+00   2.2218581931121630e-10
  1.6150000000000000e+00   2.2255794390076367e-10
  1.6200000000000001e+00   2.2292536157635097e-10
  1.6250000000000000e+00   2.2328807966423554e-10
  1.6300000000000001e+00   2.2364610695034590e-10
  1.6350000000000000e+00   2.2399945363009014e-10
  1.6400000000000001e+00   2.2434813125824570e-10
  1.6450000000000000e+00   2.2469215269901645e-10
  1.6500000000000001e+00   2.2503153207633673e-10
  1.6550000000000000e+00   2.2536628472449510e-10
  1.6600000000000001e+00   2.2569642713915690e-10
  1.6650000000000000e+00   2.2602197692886299e-10
  1.6699999999999999e+00   2.2634295276707851e-10
  1.6750000000000000e+00   2.2665937434486117e-10
  1.6799999999999999e+00   2.2697126232422614e-10
  1.6850000000000001e+00   2.2727863829227940e-10
  1.6899999999999999e+00   2.2758152471617489e-10
  1.6950000000000001e+00   2.2787994489898440e-10
  1.7000000000000000e+00   2.2817392293651859e-10
  1.7050000000000001e+00   2.2846348367517850e-10
  1.7100000000000000e+00   2.2874865267089609e-10
  1.7150000000000001e+00   2.2902945614920555e-10
  1.7200000000000000e+00   2.2930592096651909e-10
  1.7250000000000001e+00   2.2957807457264099e-10
  1.7300000000000000e+00   2.2984594497457985e-10
  1.7350000000000001e+00   2.3010956070169811e-10
  1.7400000000000000e+00   2.3036895077223540e-10
  1.7450000000000001e+00   2.3062414466125611e-10
  1.7500000000000000e+00   2.3087517227004287e-10
  1.7550000000000001e+00   2.3112206389697644e-10
  1.7600000000000000e+00   2.3136485020992323e-10
  1.7650000000000001e+00   2.3160356222015426e-10
  1.7700000000000000e+00   2.3183823125782030e-10
  1.7750000000000001e+00   2.3206888894899731e-10
  1.7800000000000000e+00   2.3229556719430720e-10
  1.7850000000000001e+00   2.3251829814913715e-10
  1.7900000000000000e+00   2.3273711420544844e-10
  1.7949999999999999e+00   2.3295204797518200e-10
  1.8000000000000000e+00   2.3316313227525916e-10
  1.8049999999999999e+00   2.3337040011416645e-10
  1.8100000000000001e+00   2.3357388468011963e-10
  1.8149999999999999e+00   2.3377361933078592e-10
  1.8200000000000001e+00   2.3396963758455343e-10
  1.8250000000000000e+00   2.3416197311332428e-10
  1.8300000000000001e+00   2.3435065973680174e-10
  1.8350000000000000e+00   2.3453573141825441e-10
  1.8400000000000001e+00   2.3471722226171018e-10
  1.8450000000000000e+00   2.3489516651056012e-10
  1.8500000000000001e+00   2.3506959854752737e-10
  1.8550000000000000e+00   2.3524055289595460e-10
  1.8600000000000001e+00   2.3540806422237689e-10
  1.8650000000000000e+00   2.3557216734032605e-10
  1.8700000000000001e+00   2.3573289721531742e-10
  1.8750000000000000e+00   2.3589028897096700e-10
  1.8800000000000001e+00   2.3604437789618726e-10
  1.8850000000000000e+00   2.3619519945339853e-10
  1.8900000000000001e+00   2.3634278928770454e-10
  1.8950000000000000e+00   2.3648718323696011e-10
  1.9000000000000001e+00   2.3662841734268102e-10
  1.9050000000000000e+00   2.3676652786171857e-10
  1.9100000000000001e+00   2.3690155127864370e-10
  1.9150000000000000e+00   2.3703352431876134e-10
  1.9199999999999999e+00   2.3716248396169590e-10
  1.9250000000000000e+00   2.3728846745547014e-10
  1.9299999999999999e+00   2.3741151233101592e-10
  1.9350000000000001e+00   2.3753165641703006e-10
  1.9399999999999999e+00   2.3764893785512014e-10
  1.9450000000000001e+00   2.3776339511515222e-10
  1.9500000000000000e+00   2.3787506701073922e-10
  1.9550000000000001e+00   2.3798399271478767e-10
  1.9600000000000000e+00   2.3809021177503747e-10
  1.9650000000000001e+00   2.3819376412951400e-10
  1.9700000000000000e+00   2.3829469012182744e-10
  1.9750000000000001e+00   2.3839303051624445e-10
  1.9800000000000000e+00   2.3848882651245587e-10
  1.9850000000000001e+00   2.3858211975998243e-10
