# First column is time, second column is the perturbation of detonation velocity.
  0.0000000000000000e+00   1.0000000000000000e-10
  5.0000000000000001e-03   1.0022747331132896e-10
  1.0000000000000000e-02   1.0038054924820558e-10
  1.4999999999999999e-02   1.0053883570806056e-10
  2.0000000000000000e-02   1.0073097281887893e-10
  2.5000000000000001e-02   1.0095631111649807e-10
  2.9999999999999999e-02   1.0119978364492410e-10
  3.5000000000000003e-02   1.0144304511620520e-10
  4.0000000000000001e-02   1.0167231775139140e-10
  4.4999999999999998e-02   1.0188256222779459e-10
  5.0000000000000003e-02   1.0207786441898994e-10
  5.5000000000000000e-02   1.0226868596443726e-10
  5.9999999999999998e-02   1.0246735322450607e-10
  6.5000000000000002e-02   1.0268349618281378e-10
  7.0000000000000007e-02   1.0292095341277999e-10
  7.4999999999999997e-02   1.0317700921395815e-10
  8.0000000000000002e-02   1.0344396473935601e-10
  8.5000000000000006e-02   1.0371226652608235e-10
  8.9999999999999997e-02   1.0397397253535469e-10
  9.5000000000000001e-02   1.0422534391896687e-10
  1.0000000000000001e-01   1.0446776502777131e-10
  1.0500000000000000e-01   1.0470683713837079e-10
  1.1000000000000000e-01   1.0495012490687074e-10
  1.1500000000000000e-01   1.0520444588237126e-10
  1.2000000000000000e-01   1.0547366458575622e-10
  1.2500000000000000e-01   1.0575769165398694e-10
  1.3000000000000000e-01   1.0605291486669193e-10
  1.3500000000000001e-01   1.0635378274779004e-10
  1.4000000000000001e-01   1.0665489721702454e-10
  1.4499999999999999e-01   1.0695285947269122e-10
  1.4999999999999999e-01   1.0724726738210856e-10
  1.5500000000000000e-01   1.0754060607935222e-10
  1.6000000000000000e-01   1.0783717226643537e-10
  1.6500000000000001e-01   1.0814148669763594e-10
  1.7000000000000001e-01   1.0845678011849743e-10
  1.7500000000000002e-01   1.0878405836251324e-10
  1.7999999999999999e-01   1.0912200896847065e-10
  1.8500000000000000e-01   1.0946770225413642e-10
  1.9000000000000000e-01   1.0981777520209181e-10
  1.9500000000000001e-01   1.1016965216937338e-10
  2.0000000000000001e-01   1.1052238564212385e-10
  2.0500000000000002e-01   1.1087686785048388e-10
  2.0999999999999999e-01   1.1123540036594061e-10
  2.1500000000000000e-01   1.1160082739555977e-10
  2.2000000000000000e-01   1.1197556700870819e-10
  2.2500000000000001e-01   1.1236087788102937e-10
  2.3000000000000001e-01   1.1275658787615844e-10
  2.3500000000000001e-01   1.1316133328600742e-10
  2.3999999999999999e-01   1.1357318010027044e-10
  2.4500000000000000e-01   1.1399038135129752e-10
  2.5000000000000000e-01   1.1441200148862073e-10
  2.5500000000000000e-01   1.1483820889385500e-10
  2.6000000000000001e-01   1.1527016858713217e-10
  2.6500000000000001e-01   1.1570960888883133e-10
  2.7000000000000002e-01   1.1615823929798185e-10
  2.7500000000000002e-01   1.1661723065920693e-10
  2.8000000000000003e-01   1.1708692787598295e-10
  2.8500000000000003e-01   1.1756687077950922e-10
  2.8999999999999998e-01   1.1805608735492979e-10
  2.9499999999999998e-01   1.1855353464622439e-10
  2.9999999999999999e-01   1.1905852429677948e-10
  3.0499999999999999e-01   1.1957099010507466e-10
  3.1000000000000000e-01   1.2009152177802376e-10
  3.1500000000000000e-01   1.2062117529755993e-10
  3.2000000000000001e-01   1.2116114496730063e-10
  3.2500000000000001e-01   1.2171242108216029e-10
  3.3000000000000002e-01   1.2227555044397052e-10
  3.3500000000000002e-01   1.2285057116513195e-10
  3.4000000000000002e-01   1.2343712750956783e-10
  3.4500000000000003e-01   1.2403470901811785e-10
  3.5000000000000003e-01   1.2464292128591593e-10
  3.5499999999999998e-01   1.2526169368877035e-10
  3.5999999999999999e-01   1.2589135954336094e-10
  3.6499999999999999e-01   1.2653259339767379e-10
  3.7000000000000000e-01   1.2718623994418860e-10
  3.7500000000000000e-01   1.2785310251421757e-10
  3.8000000000000000e-01   1.2853376644191820e-10
  3.8500000000000001e-01   1.2922851374037193e-10
  3.9000000000000001e-01   1.2993734933575771e-10
  3.9500000000000002e-01   1.3066011943504558e-10
  4.0000000000000002e-01   1.3139667321383973e-10
  4.0500000000000003e-01   1.3214700889381622e-10
  4.1000000000000003e-01   1.3291135605865720e-10
  4.1500000000000004e-01   1.3369017213150768e-10
  4.1999999999999998e-01   1.3448406204865499e-10
  4.2499999999999999e-01   1.3529365530878404e-10
  4.2999999999999999e-01   1.3611948579856520e-10
  4.3500000000000000e-01   1.3696191459462126e-10
  4.4000000000000000e-01   1.3782111761389293e-10
  4.4500000000000001e-01   1.3869713596074767e-10
  4.5000000000000001e-01   1.3958996576574144e-10
  4.5500000000000002e-01   1.4049965307846168e-10
  4.6000000000000002e-01   1.4142636085094167e-10
  4.6500000000000002e-01   1.4237038754262096e-10
  4.7000000000000003e-01   1.4333213513286626e-10
  4.7500000000000003e-01   1.4431204162378018e-10
  4.7999999999999998e-01   1.4531050368772068e-10
  4.8499999999999999e-01   1.4632781600966765e-10
  4.8999999999999999e-01   1.4736414569519899e-10
  4.9500000000000000e-01   1.4841954647789034e-10
  5.0000000000000000e-01   1.4949400349296452e-10
  5.0500000000000000e-01   1.5058748984741031e-10
  5.1000000000000001e-01   1.5170001392640972e-10
  5.1500000000000001e-01   1.5283164143128501e-10
  5.2000000000000002e-01   1.5398248614857644e-10
  5.2500000000000002e-01   1.5515267455498919e-10
  5.3000000000000003e-01   1.5634229770746341e-10
  5.3500000000000003e-01   1.5755136688575442e-10
  5.4000000000000004e-01   1.5877978662410383e-10
  5.4500000000000004e-01   1.6002735159554082e-10
  5.5000000000000004e-01   1.6129376513329412e-10
  5.5500000000000005e-01   1.6257867006991852e-10
  5.6000000000000005e-01   1.6388167930605587e-10
  5.6500000000000006e-01   1.6520239483752697e-10
  5.7000000000000006e-01   1.6654040899917724e-10
  5.7500000000000007e-01   1.6789528837819339e-10
  5.7999999999999996e-01   1.6926654678755479e-10
  5.8499999999999996e-01   1.7065361693283708e-10
  5.8999999999999997e-01   1.7205583010699608e-10
  5.9499999999999997e-01   1.7347240983976364e-10
  5.9999999999999998e-01   1.7490248035451751e-10
  6.0499999999999998e-01   1.7634508581814425e-10
  6.0999999999999999e-01   1.7779921333530671e-10
  6.1499999999999999e-01   1.7926381229118225e-10
  6.2000000000000000e-01   1.8073780484967996e-10
  6.2500000000000000e-01   1.8222008617958337e-10
  6.3000000000000000e-01   1.8370951688395504e-10
  6.3500000000000001e-01   1.8520491280955348e-10
  6.4000000000000001e-01   1.8670503810554402e-10
  6.4500000000000002e-01   1.8820860603234307e-10
  6.5000000000000002e-01   1.8971428924246364e-10
  6.5500000000000003e-01   1.9122073813294926e-10
  6.6000000000000003e-01   1.9272660348727465e-10
  6.6500000000000004e-01   1.9423055871556656e-10
  6.7000000000000004e-01   1.9573131773113735e-10
  6.7500000000000004e-01   1.9722764646448732e-10
  6.8000000000000005e-01   1.9871836842953675e-10
  6.8500000000000005e-01   2.0020236675871358e-10
  6.9000000000000006e-01   2.0167858607222772e-10
  6.9500000000000006e-01   2.0314603721835221e-10
  7.0000000000000007e-01   2.0460380654605324e-10
  7.0499999999999996e-01   2.0605106951301999e-10
  7.0999999999999996e-01   2.0748710676692557e-10
  7.1499999999999997e-01   2.0891131991388475e-10
  7.1999999999999997e-01   2.1032324425250993e-10
  7.2499999999999998e-01   2.1172255669474331e-10
  7.2999999999999998e-01   2.1310907851942168e-10
  7.3499999999999999e-01   2.1448277398938102e-10
  7.3999999999999999e-01   2.1584374674868162e-10
  7.4500000000000000e-01   2.1719223605628052e-10
  7.5000000000000000e-01   2.1852861433514345e-10
  7.5500000000000000e-01   2.1985338649044937e-10
  7.6000000000000001e-01   2.2116719037277436e-10
  7.6500000000000001e-01   2.2247079700810249e-10
  7.7000000000000002e-01   2.2376510901728498e-10
  7.7500000000000002e-01   2.2505115602433964e-10
  7.8000000000000003e-01   2.2633008662940640e-10
  7.8500000000000003e-01   2.2760315740239972e-10
  7.9000000000000004e-01   2.2887172003339190e-10
  7.9500000000000004e-01   2.3013720804690415e-10
  8.0000000000000004e-01   2.3140112429812018e-10
  8.0500000000000005e-01   2.3266502992795288e-10
  8.1000000000000005e-01   2.3393053477755086e-10
  8.1500000000000006e-01   2.3519928869266536e-10
  8.2000000000000006e-01   2.3647297286655177e-10
  8.2500000000000007e-01   2.3775329044365398e-10
  8.3000000000000007e-01   2.3904195597497427e-10
  8.3499999999999996e-01   2.4034068382474620e-10
  8.3999999999999997e-01   2.4165117608839577e-10
  8.4499999999999997e-01   2.4297511083904823e-10
  8.4999999999999998e-01   2.4431413150221179e-10
  8.5499999999999998e-01   2.4566983789357852e-10
  8.5999999999999999e-01   2.4704377905193298e-10
  8.6499999999999999e-01   2.4843744760340319e-10
  8.7000000000000000e-01   2.4985227513423882e-10
  8.7500000000000000e-01   2.5128962799822496e-10
  8.8000000000000000e-01   2.5275080313613424e-10
  8.8500000000000001e-01   2.5423702376492755e-10
  8.9000000000000001e-01   2.5574943509384187e-10
  8.9500000000000002e-01   2.5728910043725059e-10
  9.0000000000000002e-01   2.5885699815402880e-10
  9.0500000000000003e-01   2.6045401974214695e-10
  9.1000000000000003e-01   2.6208096920297831e-10
  9.1500000000000004e-01   2.6373856354414918e-10
  9.2000000000000004e-01   2.6542743409784527e-10
  9.2500000000000004e-01   2.6714812825259486e-10
  9.3000000000000005e-01   2.6890111124645283e-10
  9.3500000000000005e-01   2.7068676781914261e-10
  9.4000000000000006e-01   2.7250540371018671e-10
  9.4500000000000006e-01   2.7435724715177760e-10
  9.5000000000000007e-01   2.7624245058738429e-10
  9.5500000000000007e-01   2.7816109283002672e-10
  9.5999999999999996e-01   2.8011318177349827e-10
  9.6499999999999997e-01   2.8209865762824159e-10
  9.6999999999999997e-01   2.8411739652364707e-10
  9.7499999999999998e-01   2.8616921424400549e-10
  9.7999999999999998e-01   2.8825386986712624e-10
  9.8499999999999999e-01   2.9037106914585703e-10
  9.8999999999999999e-01   2.9252046758364182e-10
  9.9500000000000000e-01   2.9470167326538968e-10
  1.0000000000000000e+00   2.9691424957785098e-10
  1.0050000000000001e+00   2.9915771796891467e-10
  1.0100000000000000e+00   3.0143156085369054e-10
  1.0150000000000001e+00   3.0373522469689658e-10
  1.0200000000000000e+00   3.0606812321650330e-10
  1.0249999999999999e+00   3.0842964059252182e-10
  1.0300000000000000e+00   3.1081913454622499e-10
  1.0349999999999999e+00   3.1323593918173071e-10
  1.0400000000000000e+00   3.1567936754089686e-10
  1.0449999999999999e+00   3.1814871389120988e-10
  1.0500000000000000e+00   3.2064325582096090e-10
  1.0549999999999999e+00   3.2316225623956191e-10
  1.0600000000000001e+00   3.2570496536857748e-10
  1.0649999999999999e+00   3.2827062276862998e-10
  1.0700000000000001e+00   3.3085845939532073e-10
  1.0750000000000000e+00   3.3346769963254221e-10
  1.0800000000000001e+00   3.3609756322870554e-10
  1.0850000000000000e+00   3.3874726706628053e-10
  1.0900000000000001e+00   3.4141602672354674e-10
  1.0950000000000000e+00   3.4410305782783381e-10
  1.1000000000000001e+00   3.4680757723710037e-10
  1.1050000000000000e+00   3.4952880410910284e-10
  1.1100000000000001e+00   3.5226596091854153e-10
  1.1150000000000000e+00   3.5501827446410266e-10
  1.1200000000000001e+00   3.5778497687740418e-10
  1.1250000000000000e+00   3.6056530661570294e-10
  1.1300000000000001e+00   3.6335850940015060e-10
  1.1350000000000000e+00   3.6616383905722276e-10
  1.1400000000000001e+00   3.6898055823268081e-10
  1.1450000000000000e+00   3.7180793896957559e-10
  1.1500000000000001e+00   3.7464526316592716e-10
  1.1550000000000000e+00   3.7749182294543573e-10
  1.1599999999999999e+00   3.8034692098050667e-10
  1.1650000000000000e+00   3.8320987080006796e-10
  1.1699999999999999e+00   3.8607999709861047e-10
  1.1750000000000000e+00   3.8895663604385274e-10
  1.1799999999999999e+00   3.9183913556511422e-10
  1.1850000000000001e+00   3.9472685559769511e-10
  1.1899999999999999e+00   3.9761916826174533e-10
  1.1950000000000001e+00   4.0051545796525033e-10
  1.2000000000000000e+00   4.0341512143526674e-10
  1.2050000000000001e+00   4.0631756769418439e-10
  1.2100000000000000e+00   4.0922221800438658e-10
  1.2150000000000001e+00   4.1212850580354730e-10
  1.2200000000000000e+00   4.1503587664498423e-10
  1.2250000000000001e+00   4.1794378814623069e-10
  1.2300000000000000e+00   4.2085170993836788e-10
  1.2350000000000001e+00   4.2375912360219595e-10
  1.2400000000000000e+00   4.2666552257674990e-10
  1.2450000000000001e+00   4.2957041203062590e-10
  1.2500000000000000e+00   4.3247330869480853e-10
  1.2550000000000001e+00   4.3537374066409630e-10
  1.2600000000000000e+00   4.3827124717988286e-10
  1.2650000000000001e+00   4.4116537840830694e-10
  1.2700000000000000e+00   4.4405569522457185e-10
  1.2750000000000001e+00   4.4694176900806102e-10
  1.2800000000000000e+00   4.4982318144605704e-10
  1.2849999999999999e+00   4.5269952433879261e-10
  1.2900000000000000e+00   4.5557039939673023e-10
  1.2949999999999999e+00   4.5843541802270663e-10
  1.3000000000000000e+00   4.6129420107594790e-10
  1.3049999999999999e+00   4.6414637862021548e-10
  1.3100000000000001e+00   4.6699158966262664e-10
  1.3149999999999999e+00   4.6982948189162359e-10
  1.3200000000000001e+00   4.7265971142171011e-10
  1.3250000000000000e+00   4.7548194254947327e-10
  1.3300000000000001e+00   4.7829584752131846e-10
  1.3350000000000000e+00   4.8110110630973636e-10
  1.3400000000000001e+00   4.8389740639296985e-10
  1.3450000000000000e+00   4.8668444253315465e-10
  1.3500000000000001e+00   4.8946191655009897e-10
  1.3550000000000000e+00   4.9222953709095135e-10
  1.3600000000000001e+00   4.9498701939895953e-10
  1.3650000000000000e+00   4.9773408508632601e-10
  1.3700000000000001e+00   5.0047046191635291e-10
  1.3750000000000000e+00   5.0319588359868248e-10
  1.3800000000000001e+00   5.0591008959913561e-10
  1.3850000000000000e+00   5.0861282496325171e-10
  1.3900000000000001e+00   5.1130384015100040e-10
  1.3950000000000000e+00   5.1398289087970489e-10
  1.4000000000000001e+00   5.1664973797305972e-10
  1.4050000000000000e+00   5.1930414721580419e-10
  1.4099999999999999e+00   5.2194588921549729e-10
  1.4150000000000000e+00   5.2457473927426813e-10
  1.4199999999999999e+00   5.2719047727393715e-10
  1.4250000000000000e+00   5.2979288757743732e-10
  1.4299999999999999e+00   5.3238175894824725e-10
  1.4350000000000001e+00   5.3495688448808269e-10
  1.4399999999999999e+00   5.3751806159186149e-10
  1.4450000000000001e+00   5.4006509191840764e-10
  1.4500000000000000e+00   5.4259778137555856e-10
  1.4550000000000001e+00   5.4511594011920136e-10
  1.4600000000000000e+00   5.4761938256689741e-10
  1.4650000000000001e+00   5.5010792742778072e-10
  1.4700000000000000e+00   5.5258139775097419e-10
  1.4750000000000001e+00   5.5503962099474046e-10
  1.4800000000000000e+00   5.5748242911801111e-10
  1.4850000000000001e+00   5.5990965869508900e-10
  1.4900000000000000e+00   5.6232115105347689e-10
  1.4950000000000001e+00   5.6471675243427952e-10
  1.5000000000000000e+00   5.6709631417453802e-10
  1.5050000000000001e+00   5.6945969291122823e-10
  1.5100000000000000e+00   5.7180675080726822e-10
  1.5150000000000001e+00   5.7413735580053149e-10
  1.5200000000000000e+00   5.7645138187729442e-10
  1.5250000000000001e+00   5.7874870937164221e-10
  1.5300000000000000e+00   5.8102922529207713e-10
  1.5350000000000001e+00   5.8329282367606096e-10
  1.5400000000000000e+00   5.8553940597261702e-10
  1.5449999999999999e+00   5.8776888145264682e-10
  1.5500000000000000e+00   5.8998116764636128e-10
  1.5549999999999999e+00   5.9217619080724784e-10
  1.5600000000000001e+00   5.9435388640222743e-10
  1.5649999999999999e+00   5.9651419962792138e-10
  1.5700000000000001e+00   5.9865708595317647e-10
  1.5750000000000000e+00   6.0078251168799613e-10
  1.5800000000000001e+00   6.0289045457882366e-10
  1.5850000000000000e+00   6.0498090442971368e-10
  1.5900000000000001e+00   6.0705386374843545e-10
  1.5950000000000000e+00   6.0910934841607060e-10
  1.6000000000000001e+00   6.1114738837830823e-10
  1.6050000000000000e+00   6.1316802835644349e-10
  1.6100000000000001e+00   6.1517132857602428e-10
  1.6150000000000000e+00   6.1715736551111678e-10
  1.6200000000000001e+00   6.1912623264217987e-10
  1.6250000000000000e+00   6.2107804122545954e-10
  1.6300000000000001e+00   6.2301292107163490e-10
  1.6350000000000000e+00   6.2493102133112430e-10
  1.6400000000000001e+00   6.2683251128308887e-10
  1.6450000000000000e+00   6.2871758112477461e-10
  1.6500000000000001e+00   6.3058644275753039e-10
  1.6550000000000000e+00   6.3243933056561747e-10
  1.6600000000000001e+00   6.3427650218383315e-10
  1.6650000000000000e+00   6.3609823924996000e-10
  1.6699999999999999e+00   6.3790484813808637e-10
  1.6750000000000000e+00   6.3969666066884789e-10
  1.6799999999999999e+00   6.4147403479262752e-10
  1.6850000000000001e+00   6.4323735524166376e-10
  1.6899999999999999e+00   6.4498703414690164e-10
  1.6950000000000001e+00   6.4672351161532175e-10
  1.7000000000000000e+00   6.4844725626341483e-10
  1.7050000000000001e+00   6.5015876570249000e-10
  1.7100000000000000e+00   6.5185856697161661e-10
  1.7150000000000001e+00   6.5354721691419001e-10
  1.7200000000000000e+00   6.5522530249435783e-10
  1.7250000000000001e+00   6.5689344104981339e-10
  1.7300000000000000e+00   6.5855228047773205e-10
  1.7350000000000001e+00   6.6020249935087232e-10
  1.7400000000000000e+00   6.6184480696109341e-10
  1.7450000000000001e+00   6.6347994328778507e-10
  1.7500000000000000e+00   6.6510867888895799e-10
  1.7550000000000001e+00   6.6673181471305420e-10
  1.7600000000000000e+00   6.6835018182989221e-10
  1.7650000000000001e+00   6.6996464107957743e-10
  1.7700000000000000e+00   6.7157608263864989e-10
  1.7750000000000001e+00   6.7318542550321069e-10
  1.7800000000000000e+00   6.7479361688921411e-10
  1.7850000000000001e+00   6.7640163155055387e-10
  1.7900000000000000e+00   6.7801047101597657e-10
  1.7949999999999999e+00   6.7962116274623361e-10
  1.8000000000000000e+00   6.8123475921326887e-10
  1.8049999999999999e+00   6.8285233690360267e-10
  1.8100000000000001e+00   6.8447499524845562e-10
  1.8149999999999999e+00   6.8610385548354368e-10
  1.8200000000000001e+00   6.8774005944186030e-10
  1.8250000000000000e+00   6.8938476828312646e-10
  1.8300000000000001e+00   6.9103916116393763e-10
  1.8350000000000000e+00   6.9270443385293200e-10
  1.8400000000000001e+00   6.9438179729556307e-10
  1.8450000000000000e+00   6.9607247613326817e-10
  1.8500000000000001e+00   6.9777770718199157e-10
  1.8550000000000000e+00   6.9949873787516893e-10
  1.8600000000000001e+00   7.0123682467638158e-10
  1.8650000000000000e+00   7.0299323146698815e-10
  1.8700000000000001e+00   7.0476922791410539e-10
  1.8750000000000000e+00   7.0656608782434689e-10
  1.8800000000000001e+00   7.0838508748873634e-10
  1.8850000000000000e+00   7.1022750402416954e-10
  1.8900000000000001e+00   7.1209461371672136e-10
  1.8950000000000000e+00   7.1398769037197276e-10
  1.9000000000000001e+00   7.1590800367737291e-10
  1.9050000000000000e+00   7.1785681758146052e-10
  1.9100000000000001e+00   7.1983538869456228e-10
  1.9150000000000000e+00   7.2184496471535325e-10
  1.9199999999999999e+00   7.2388678288742530e-10
  1.9250000000000000e+00   7.2596206848975252e-10
  1.9299999999999999e+00   7.2807203336467439e-10
  1.9350000000000001e+00   7.3021787448672660e-10
  1.9399999999999999e+00   7.3240077257535703e-10
  1.9450000000000001e+00   7.3462189075423779e-10
  1.9500000000000000e+00   7.3688237325957071e-10
  1.9550000000000001e+00   7.3918334419944503e-10
  1.9600000000000000e+00   7.4152590636598629e-10
  1.9650000000000001e+00   7.4391114010171373e-10
  1.9700000000000000e+00   7.4634010222121513e-10
  1.9750000000000001e+00   7.4881382498894980e-10
  1.9800000000000000e+00   7.5133331515371426e-10
  1.9850000000000001e+00   7.5389955304002360e-10
