# First column is time, second column is the perturbation of detonation velocity.
  0.0000000000000000e+00   1.0000000000000000e-10
  5.0000000000000001e-03   1.0020107083926483e-10
  1.0000000000000000e-02   1.0043253804734504e-10
  1.4999999999999999e-02   1.0070325601122048e-10
  2.0000000000000000e-02   1.0092515229117484e-10
  2.5000000000000001e-02   1.0112740467163233e-10
  2.9999999999999999e-02   1.0137618165675317e-10
  3.5000000000000003e-02   1.0165259607313368e-10
  4.0000000000000001e-02   1.0190107748441730e-10
  4.4999999999999998e-02   1.0212869763665158e-10
  5.0000000000000003e-02   1.0238184289515359e-10
  5.5000000000000000e-02   1.0266301796218192e-10
  5.9999999999999998e-02   1.0293548680266264e-10
  6.5000000000000002e-02   1.0319110969572717e-10
  7.0000000000000007e-02   1.0345812841792702e-10
  7.4999999999999997e-02   1.0374804374622184e-10
  8.0000000000000002e-02   1.0404032198259511e-10
  8.5000000000000006e-02   1.0432244304787811e-10
  8.9999999999999997e-02   1.0460897357147014e-10
  9.5000000000000001e-02   1.0491263564198959e-10
  1.0000000000000001e-01   1.0522407359062972e-10
  1.0500000000000000e-01   1.0553165669081599e-10
  1.1000000000000000e-01   1.0584109583497040e-10
  1.1500000000000000e-01   1.0616287366701188e-10
  1.2000000000000000e-01   1.0649435986184455e-10
  1.2500000000000000e-01   1.0682687447829158e-10
  1.3000000000000000e-01   1.0716125334947553e-10
  1.3500000000000001e-01   1.0750481847692091e-10
  1.4000000000000001e-01   1.0785836385373149e-10
  1.4499999999999999e-01   1.0821638059794532e-10
  1.4999999999999999e-01   1.0857754645940261e-10
  1.5500000000000000e-01   1.0894632331813866e-10
  1.6000000000000000e-01   1.0932480239949676e-10
  1.6500000000000001e-01   1.0971003615346022e-10
  1.7000000000000001e-01   1.1010013240387166e-10
  1.7500000000000002e-01   1.1049742913176098e-10
  1.7999999999999999e-01   1.1090413860960134e-10
  1.8500000000000000e-01   1.1131905785194819e-10
  1.9000000000000000e-01   1.1174050772359432e-10
  1.9500000000000001e-01   1.1216947471784991e-10
  2.0000000000000001e-01   1.1260778563190945e-10
  2.0500000000000002e-01   1.1305527575130166e-10
  2.0999999999999999e-01   1.1351077547898266e-10
  2.1500000000000000e-01   1.1397455417272820e-10
  2.2000000000000000e-01   1.1444794458139486e-10
  2.2500000000000001e-01   1.1493131759231306e-10
  2.3000000000000001e-01   1.1542404071629591e-10
  2.3500000000000001e-01   1.1592609804113840e-10
  2.3999999999999999e-01   1.1643839878510657e-10
  2.4500000000000000e-01   1.1696152831686860e-10
  2.5000000000000000e-01   1.1749528745136693e-10
  2.5500000000000000e-01   1.1803961639785224e-10
  2.6000000000000001e-01   1.1859512090645810e-10
  2.6500000000000001e-01   1.1916241883571468e-10
  2.7000000000000002e-01   1.1974160591883316e-10
  2.7500000000000002e-01   1.2033268943787497e-10
  2.8000000000000003e-01   1.2093609095985361e-10
  2.8500000000000003e-01   1.2155238370488565e-10
  2.8999999999999998e-01   1.2218184462288098e-10
  2.9499999999999998e-01   1.2282458987519214e-10
  2.9999999999999999e-01   1.2348095835174780e-10
  3.0499999999999999e-01   1.2415146874444590e-10
  3.1000000000000000e-01   1.2483650482925968e-10
  3.1500000000000000e-01   1.2553629685855094e-10
  3.2000000000000001e-01   1.2625117128180292e-10
  3.2500000000000001e-01   1.2698160792949558e-10
  3.3000000000000002e-01   1.2772804864735281e-10
  3.3500000000000002e-01   1.2849081800669252e-10
  3.4000000000000002e-01   1.2927026239060442e-10
  3.4500000000000003e-01   1.3006683593438977e-10
  3.5000000000000003e-01   1.3088100184691902e-10
  3.5499999999999998e-01   1.3171314488142705e-10
  3.5999999999999999e-01   1.3256363385713748e-10
  3.6499999999999999e-01   1.3343290062725309e-10
  3.7000000000000000e-01   1.3432140122223276e-10
  3.7500000000000000e-01   1.3522954362704598e-10
  3.8000000000000000e-01   1.3615770434433801e-10
  3.8500000000000001e-01   1.3710628660969864e-10
  3.9000000000000001e-01   1.3807571406380902e-10
  3.9500000000000002e-01   1.3906637960240382e-10
  4.0000000000000002e-01   1.4007863796118419e-10
  4.0500000000000003e-01   1.4111284116629605e-10
  4.1000000000000003e-01   1.4216934550153172e-10
  4.1500000000000004e-01   1.4324847849755496e-10
  4.1999999999999998e-01   1.4435052124187191e-10
  4.2499999999999999e-01   1.4547572460319231e-10
  4.2999999999999999e-01   1.4662431809069160e-10
  4.3500000000000000e-01   1.4779648938144545e-10
  4.4000000000000000e-01   1.4899236392871183e-10
  4.4500000000000001e-01   1.5021200729284362e-10
  4.5000000000000001e-01   1.5145543042417113e-10
  4.5500000000000002e-01   1.5272257635990781e-10
  4.6000000000000002e-01   1.5401330056641780e-10
  4.6500000000000002e-01   1.5532736432600798e-10
  4.7000000000000003e-01   1.5666443467543474e-10
  4.7500000000000003e-01   1.5802407426266164e-10
  4.7999999999999998e-01   1.5940572358497002e-10
  4.8499999999999999e-01   1.6080868949489443e-10
  4.8999999999999999e-01   1.6223214050516094e-10
  4.9500000000000000e-01   1.6367509802754498e-10
  5.0000000000000000e-01   1.6513642152639448e-10
  5.0500000000000000e-01   1.6661479628701248e-10
  5.1000000000000001e-01   1.6810872728358856e-10
  5.1500000000000001e-01   1.6961653320468686e-10
  5.2000000000000002e-01   1.7113633734979580e-10
  5.2500000000000002e-01   1.7266606019797920e-10
  5.3000000000000003e-01   1.7420341774869485e-10
  5.3500000000000003e-01   1.7574592316542252e-10
  5.4000000000000004e-01   1.7729088872836090e-10
  5.4500000000000004e-01   1.7883543029782114e-10
  5.5000000000000004e-01   1.8037647777660012e-10
  5.5500000000000005e-01   1.8191079105799169e-10
  5.6000000000000005e-01   1.8343497915151999e-10
  5.6500000000000006e-01   1.8494552296986989e-10
  5.7000000000000006e-01   1.8643880402109190e-10
  5.7500000000000007e-01   1.8791113911525262e-10
  5.7999999999999996e-01   1.8935881919199235e-10
  5.8499999999999996e-01   1.9077815149540057e-10
  5.8999999999999997e-01   1.9216550584690709e-10
  5.9499999999999997e-01   1.9351736484209217e-10
  5.9999999999999998e-01   1.9483037613496925e-10
  6.0499999999999998e-01   1.9610140516986090e-10
  6.0999999999999999e-01   1.9732758785817912e-10
  6.1499999999999999e-01   1.9850638254813993e-10
  6.2000000000000000e-01   1.9963561957207031e-10
  6.2500000000000000e-01   2.0071354654092710e-10
  6.3000000000000000e-01   2.0173886841336587e-10
  6.3500000000000001e-01   2.0271078170847381e-10
  6.4000000000000001e-01   2.0362900178268728e-10
  6.4500000000000002e-01   2.0449378199535823e-10
  6.5000000000000002e-01   2.0530592424742015e-10
  6.5500000000000003e-01   2.0606678093042066e-10
  6.6000000000000003e-01   2.0677824828055987e-10
  6.6500000000000004e-01   2.0744275108672350e-10
  6.7000000000000004e-01   2.0806321912629580e-10
  6.7500000000000004e-01   2.0864305618537293e-10
  6.8000000000000005e-01   2.0918610259432287e-10
  6.8500000000000005e-01   2.0969659211540292e-10
  6.9000000000000006e-01   2.1017910416231242e-10
  6.9500000000000006e-01   2.1063851258372712e-10
  7.0000000000000007e-01   2.1107993225458895e-10
  7.0499999999999996e-01   2.1150866453654647e-10
  7.0999999999999996e-01   2.1193014258614494e-10
  7.1499999999999997e-01   2.1234987752675448e-10
  7.1999999999999997e-01   2.1277340643473301e-10
  7.2499999999999998e-01   2.1320624287779654e-10
  7.2999999999999998e-01   2.1365383056608998e-10
  7.3499999999999999e-01   2.1412150061044197e-10
  7.3999999999999999e-01   2.1461443280360811e-10
  7.4500000000000000e-01   2.1513762117434652e-10
  7.5000000000000000e-01   2.1569584390434576e-10
  7.5500000000000000e-01   2.1629363762505134e-10
  7.6000000000000001e-01   2.1693527606743589e-10
  7.6500000000000001e-01   2.1762475295006455e-10
  7.7000000000000002e-01   2.1836576889445550e-10
  7.7500000000000002e-01   2.1916172211583255e-10
  7.8000000000000003e-01   2.2001570263378599e-10
  7.8500000000000003e-01   2.2093048972494840e-10
  7.9000000000000004e-01   2.2190855230175239e-10
  7.9500000000000004e-01   2.2295205189108597e-10
  8.0000000000000004e-01   2.2406284790692914e-10
  8.0500000000000005e-01   2.2524250492515859e-10
  8.1000000000000005e-01   2.2649230166625752e-10
  8.1500000000000006e-01   2.2781324139840039e-10
  8.2000000000000006e-01   2.2920606350039506e-10
  8.2500000000000007e-01   2.3067125595093265e-10
  8.3000000000000007e-01   2.3220906852395375e-10
  8.3499999999999996e-01   2.3381952648258304e-10
  8.3999999999999997e-01   2.3550244458828320e-10
  8.4499999999999997e-01   2.3725744126859049e-10
  8.4999999999999998e-01   2.3908395280410385e-10
  8.5499999999999998e-01   2.4098124740805236e-10
  8.5999999999999999e-01   2.4294843908980985e-10
  8.6499999999999999e-01   2.4498450121478013e-10
  8.7000000000000000e-01   2.4708827968846327e-10
  8.7500000000000000e-01   2.4925850570255147e-10
  8.8000000000000000e-01   2.5149380799251231e-10
  8.8500000000000001e-01   2.5379272457020864e-10
  8.9000000000000001e-01   2.5615371390625004e-10
  8.9500000000000002e-01   2.5857516554340862e-10
  9.0000000000000002e-01   2.6105541012867880e-10
  9.0500000000000003e-01   2.6359272885953918e-10
  9.1000000000000003e-01   2.6618536234681738e-10
  9.1500000000000004e-01   2.6883151890025525e-10
  9.2000000000000004e-01   2.7152938224552226e-10
  9.2500000000000004e-01   2.7427711868517258e-10
  9.3000000000000005e-01   2.7707288371969392e-10
  9.3500000000000005e-01   2.7991482814662173e-10
  9.4000000000000006e-01   2.8280110365642662e-10
  9.4500000000000006e-01   2.8572986794522380e-10
  9.5000000000000007e-01   2.8869928936603868e-10
  9.5500000000000007e-01   2.9170755114111619e-10
  9.5999999999999996e-01   2.9475285515760535e-10
  9.6499999999999997e-01   2.9783342536899090e-10
  9.6999999999999997e-01   3.0094751082507585e-10
  9.7499999999999998e-01   3.0409338835334152e-10
  9.7999999999999998e-01   3.0726936491383154e-10
  9.8499999999999999e-01   3.1047377964899397e-10
  9.8999999999999999e-01   3.1370500564948534e-10
  9.9500000000000000e-01   3.1696145145642327e-10
  1.0000000000000000e+00   3.2024156231959615e-10
  1.0050000000000001e+00   3.2354382123005723e-10
  1.0100000000000000e+00   3.2686674974468050e-10
  1.0150000000000001e+00   3.3020890861948420e-10
  1.0200000000000000e+00   3.3356889826754649e-10
  1.0249999999999999e+00   3.3694535905628956e-10
  1.0300000000000000e+00   3.4033697145801634e-10
  1.0349999999999999e+00   3.4374245606686666e-10
  1.0400000000000000e+00   3.4716057349457833e-10
  1.0449999999999999e+00   3.5059012415659762e-10
  1.0500000000000000e+00   3.5402994795935546e-10
  1.0549999999999999e+00   3.5747892389891710e-10
  1.0600000000000001e+00   3.6093596958061083e-10
  1.0649999999999999e+00   3.6440004066858670e-10
  1.0700000000000001e+00   3.6787013027362416e-10
  1.0750000000000000e+00   3.7134526828694859e-10
  1.0800000000000001e+00   3.7482452066729904e-10
  1.0850000000000000e+00   3.7830698868790429e-10
  1.0900000000000001e+00   3.8179180814945705e-10
  1.0950000000000000e+00   3.8527814856465073e-10
  1.1000000000000001e+00   3.8876521231938001e-10
  1.1050000000000000e+00   3.9225223381520971e-10
  1.1100000000000001e+00   3.9573847859726611e-10
  1.1150000000000000e+00   3.9922324247127146e-10
  1.1200000000000001e+00   4.0270585061309672e-10
  1.1250000000000000e+00   4.0618565667386692e-10
  1.1300000000000001e+00   4.0966204188334746e-10
  1.1350000000000000e+00   4.1313441415405192e-10
  1.1400000000000001e+00   4.1660220718829860e-10
  1.1450000000000000e+00   4.2006487959022901e-10
  1.1500000000000001e+00   4.2352191398461285e-10
  1.1550000000000000e+00   4.2697281614407459e-10
  1.1599999999999999e+00   4.3041711412622675e-10
  1.1650000000000000e+00   4.3385435742204048e-10
  1.1699999999999999e+00   4.3728411611663380e-10
  1.1750000000000000e+00   4.4070598006351920e-10
  1.1799999999999999e+00   4.4411955807318969e-10
  1.1850000000000001e+00   4.4752447711682240e-10
  1.1899999999999999e+00   4.5092038154571557e-10
  1.1950000000000001e+00   4.5430693232699408e-10
  1.2000000000000000e+00   4.5768380629596978e-10
  1.2050000000000001e+00   4.6105069542547986e-10
  1.2100000000000000e+00   4.6440730611242691e-10
  1.2150000000000001e+00   4.6775335848169152e-10
  1.2200000000000000e+00   4.7108858570752333e-10
  1.2250000000000001e+00   4.7441273335248928e-10
  1.2300000000000000e+00   4.7772555872401862e-10
  1.2350000000000001e+00   4.8102683024858823e-10
  1.2400000000000000e+00   4.8431632686356317e-10
  1.2450000000000001e+00   4.8759383742671578e-10
  1.2500000000000000e+00   4.9085916014343847e-10
  1.2550000000000001e+00   4.9411210201167927e-10
  1.2600000000000000e+00   4.9735247828462059e-10
  1.2650000000000001e+00   5.0058011195112935e-10
  1.2700000000000000e+00   5.0379483323400011e-10
  1.2750000000000001e+00   5.0699647910603049e-10
  1.2800000000000000e+00   5.1018489282395342e-10
  1.2849999999999999e+00   5.1335992348027343e-10
  1.2900000000000000e+00   5.1652142557304770e-10
  1.2949999999999999e+00   5.1966925859367905e-10
  1.3000000000000000e+00   5.2280328663280319e-10
  1.3049999999999999e+00   5.2592337800437543e-10
  1.3100000000000001e+00   5.2902940488810058e-10
  1.3149999999999999e+00   5.3212124299038443e-10
  1.3200000000000001e+00   5.3519877122402803e-10
  1.3250000000000000e+00   5.3826187140694501e-10
  1.3300000000000001e+00   5.4131042798021842e-10
  1.3350000000000000e+00   5.4434432774588140e-10
  1.3400000000000001e+00   5.4736345962486580e-10
  1.3450000000000000e+00   5.5036771443560752e-10
  1.3500000000000001e+00   5.5335698469386909e-10
  1.3550000000000000e+00   5.5633116443438713e-10
  1.3600000000000001e+00   5.5929014905502006e-10
  1.3650000000000000e+00   5.6223383518412260e-10
  1.3700000000000001e+00   5.6516212057192516e-10
  1.3750000000000000e+00   5.6807490400676900e-10
  1.3800000000000001e+00   5.7097208525708942e-10
  1.3850000000000000e+00   5.7385356504010554e-10
  1.3900000000000001e+00   5.7671924501824129e-10
  1.3950000000000000e+00   5.7956902782434337e-10
  1.4000000000000001e+00   5.8240281711684742e-10
  1.4050000000000000e+00   5.8522051766608810e-10
  1.4099999999999999e+00   5.8802203547301907e-10
  1.4150000000000000e+00   5.9080727792165125e-10
  1.4199999999999999e+00   5.9357615396660198e-10
  1.4250000000000000e+00   5.9632857435717231e-10
  1.4299999999999999e+00   5.9906445189942906e-10
  1.4350000000000001e+00   6.0178370175779510e-10
  1.4399999999999999e+00   6.0448624179769482e-10
  1.4450000000000001e+00   6.0717199297080868e-10
  1.4500000000000000e+00   6.0984087974449645e-10
  1.4550000000000001e+00   6.1249283057695053e-10
  1.4600000000000000e+00   6.1512777843959973e-10
  1.4650000000000001e+00   6.1774566138827259e-10
  1.4700000000000000e+00   6.2034642318454497e-10
  1.4750000000000001e+00   6.2293001396863699e-10
  1.4800000000000000e+00   6.2549639098511308e-10
  1.4850000000000001e+00   6.2804551936253710e-10
  1.4900000000000000e+00   6.3057737294806113e-10
  1.4950000000000001e+00   6.3309193519777616e-10
  1.5000000000000000e+00   6.3558920012343233e-10
  1.5050000000000001e+00   6.3806917329590878e-10
  1.5100000000000000e+00   6.4053187290553871e-10
  1.5150000000000001e+00   6.4297733087909724e-10
  1.5200000000000000e+00   6.4540559405289926e-10
  1.5250000000000001e+00   6.4781672540109867e-10
  1.5300000000000000e+00   6.5021080531782692e-10
  1.5350000000000001e+00   6.5258793295137526e-10
  1.5400000000000000e+00   6.5494822758810653e-10
  1.5449999999999999e+00   6.5729183008324063e-10
  1.5500000000000000e+00   6.5961890433509126e-10
  1.5549999999999999e+00   6.6192963879870644e-10
  1.5600000000000001e+00   6.6422424803423249e-10
  1.5649999999999999e+00   6.6650297428464194e-10
  1.5700000000000001e+00   6.6876608907678270e-10
  1.5750000000000000e+00   6.7101389483899366e-10
  1.5800000000000001e+00   6.7324672652782577e-10
  1.5850000000000000e+00   6.7546495325569964e-10
  1.5900000000000001e+00   6.7766897991061600e-10
  1.5950000000000000e+00   6.7985924875837981e-10
  1.6000000000000001e+00   6.8203624101713153e-10
  1.6050000000000000e+00   6.8420047839339206e-10
  1.6100000000000001e+00   6.8635252456827727e-10
  1.6150000000000000e+00   6.8849298662205282e-10
  1.6200000000000001e+00   6.9062251638482460e-10
  1.6250000000000000e+00   6.9274181170083640e-10
  1.6300000000000001e+00   6.9485161759366885e-10
  1.6350000000000000e+00   6.9695272731953438e-10
  1.6400000000000001e+00   6.9904598329593937e-10
  1.6450000000000000e+00   7.0113227789314312e-10
  1.6500000000000001e+00   7.0321255407619146e-10
  1.6550000000000000e+00   7.0528780588576030e-10
  1.6600000000000001e+00   7.0735907874670118e-10
  1.6650000000000000e+00   7.0942746959393662e-10
  1.6699999999999999e+00   7.1149412680630000e-10
  1.6750000000000000e+00   7.1356024993999419e-10
  1.6799999999999999e+00   7.1562708925455104e-10
  1.6850000000000001e+00   7.1769594502553221e-10
  1.6899999999999999e+00   7.1976816663966138e-10
  1.6950000000000001e+00   7.2184515146965122e-10
  1.7000000000000000e+00   7.2392834352761807e-10
  1.7050000000000001e+00   7.2601923189769101e-10
  1.7100000000000000e+00   7.2811934895016353e-10
  1.7150000000000001e+00   7.3023026834130635e-10
  1.7200000000000000e+00   7.3235360280470100e-10
  1.7250000000000001e+00   7.3449100174168329e-10
  1.7300000000000000e+00   7.3664414862016795e-10
  1.7350000000000001e+00   7.3881475819269139e-10
  1.7400000000000000e+00   7.4100457354602114e-10
  1.7450000000000001e+00   7.4321536299602714e-10
  1.7500000000000000e+00   7.4544891684273535e-10
  1.7550000000000001e+00   7.4770704400155977e-10
  1.7600000000000000e+00   7.4999156852757692e-10
  1.7650000000000001e+00   7.5230432605043160e-10
  1.7700000000000000e+00   7.5464716013795350e-10
  1.7750000000000001e+00   7.5702191860689210e-10
  1.7800000000000000e+00   7.5943044979929214e-10
  1.7850000000000001e+00   7.6187459884293686e-10
  1.7900000000000000e+00   7.6435620391402217e-10
  1.7949999999999999e+00   7.6687709251975883e-10
  1.8000000000000000e+00   7.6943907781797790e-10
  1.8049999999999999e+00   7.7204395499002471e-10
  1.8100000000000001e+00   7.7469349768228275e-10
  1.8149999999999999e+00   7.7738945453062494e-10
  1.8200000000000001e+00   7.8013354578093041e-10
  1.8250000000000000e+00   7.8292746001754994e-10
  1.8300000000000001e+00   7.8577285101029880e-10
  1.8350000000000000e+00   7.8867133468919741e-10
  1.8400000000000001e+00   7.9162448625481844e-10
  1.8450000000000000e+00   7.9463383743070383e-10
  1.8500000000000001e+00   7.9770087386297337e-10
  1.8550000000000000e+00   8.0082703267090759e-10
  1.8600000000000001e+00   8.0401370015103691e-10
  1.8650000000000000e+00   8.0726220963603452e-10
  1.8700000000000001e+00   8.1057383950861860e-10
  1.8750000000000000e+00   8.1394981136960973e-10
  1.8800000000000001e+00   8.1739128835836812e-10
  1.8850000000000000e+00   8.2089937362299826e-10
  1.8900000000000001e+00   8.2447510893700505e-10
  1.8950000000000000e+00   8.2811947345845977e-10
  1.9000000000000001e+00   8.3183338262727511e-10
  1.9050000000000000e+00   8.3561768719578431e-10
  1.9100000000000001e+00   8.3947317238758679e-10
  1.9150000000000000e+00   8.4340055717944803e-10
  1.9199999999999999e+00   8.4740049370101048e-10
  1.9250000000000000e+00   8.5147356674711869e-10
  1.9299999999999999e+00   8.5562029339769155e-10
  1.9350000000000001e+00   8.5984112274032356e-10
  1.9399999999999999e+00   8.6413643569109463e-10
  1.9450000000000001e+00   8.6850654490942987e-10
  1.9500000000000000e+00   8.7295169480330511e-10
  1.9550000000000001e+00   8.7747206162157163e-10
  1.9600000000000000e+00   8.8206775363069324e-10
  1.9650000000000001e+00   8.8673881137379444e-10
  1.9700000000000000e+00   8.9148520801046369e-10
  1.9750000000000001e+00   8.9630684973641798e-10
  1.9800000000000000e+00   9.0120357628272144e-10
  1.9850000000000001e+00   9.0617516149492466e-10
