# First column is time, second column is the perturbation of detonation velocity.
  0.0000000000000000e+00   1.0000000000000000e-10
  1.0000000000000000e-02   1.0052242035060277e-10
  2.0000000000000000e-02   1.0088205727062585e-10
  2.9999999999999999e-02   1.0132260814491206e-10
  4.0000000000000001e-02   1.0187717532165566e-10
  5.0000000000000003e-02   1.0249198158688088e-10
  5.9999999999999998e-02   1.0309985064537715e-10
  7.0000000000000007e-02   1.0366239481374616e-10
  8.0000000000000002e-02   1.0418374879593480e-10
  8.9999999999999997e-02   1.0469986196583736e-10
  1.0000000000000001e-01   1.0525408503629235e-10
  1.1000000000000000e-01   1.0587338243757713e-10
  1.2000000000000000e-01   1.0655673674229918e-10
  1.3000000000000000e-01   1.0727960065758871e-10
  1.4000000000000001e-01   1.0800977052771819e-10
  1.4999999999999999e-01   1.0872503194425296e-10
  1.6000000000000000e-01   1.0942339349055782e-10
  1.7000000000000001e-01   1.1012171842235284e-10
  1.7999999999999999e-01   1.1084498344573726e-10
  1.9000000000000000e-01   1.1161282711086354e-10
  2.0000000000000001e-01   1.1243053376002094e-10
  2.0999999999999999e-01   1.1328841513800494e-10
  2.2000000000000000e-01   1.1416879204680461e-10
  2.3000000000000001e-01   1.1505605080329790e-10
  2.3999999999999999e-01   1.1594429616199080e-10
  2.5000000000000000e-01   1.1683905710670790e-10
  2.6000000000000001e-01   1.1775296714800621e-10
  2.7000000000000002e-01   1.1869838725082713e-10
  2.8000000000000003e-01   1.1968108700934066e-10
  2.8999999999999998e-01   1.2069802103178725e-10
  2.9999999999999999e-01   1.2173977098246053e-10
  3.1000000000000000e-01   1.2279579629780837e-10
  3.2000000000000001e-01   1.2385946666901372e-10
  3.3000000000000002e-01   1.2493036027380516e-10
  3.4000000000000002e-01   1.2601302348438937e-10
  3.5000000000000003e-01   1.2711327861749450e-10
  3.5999999999999999e-01   1.2823425941501594e-10
  3.7000000000000000e-01   1.2937420392315889e-10
  3.8000000000000000e-01   1.3052688143513543e-10
  3.9000000000000001e-01   1.3168408813065469e-10
  4.0000000000000002e-01   1.3283868013613978e-10
  4.1000000000000003e-01   1.3398654681753145e-10
  4.1999999999999998e-01   1.3512667529706152e-10
  4.2999999999999999e-01   1.3625953453695740e-10
  4.4000000000000000e-01   1.3738482716583521e-10
  4.5000000000000001e-01   1.3849984028240158e-10
  4.6000000000000002e-01   1.3959916466021526e-10
  4.7000000000000003e-01   1.4067576312454477e-10
  4.7999999999999998e-01   1.4172269406336203e-10
  4.8999999999999999e-01   1.4273456004539622e-10
  5.0000000000000000e-01   1.4370801512166742e-10
  5.1000000000000001e-01   1.4464122848941052e-10
  5.2000000000000002e-01   1.4553274259447380e-10
  5.3000000000000003e-01   1.4638041111171079e-10
  5.4000000000000004e-01   1.4718097062417408e-10
  5.5000000000000004e-01   1.4793040571118685e-10
  5.6000000000000005e-01   1.4862484397137420e-10
  5.7000000000000006e-01   1.4926148246081640e-10
  5.7999999999999996e-01   1.4983909377428834e-10
  5.8999999999999997e-01   1.5035792777763749e-10
  5.9999999999999998e-01   1.5081914969311441e-10
  6.0999999999999999e-01   1.5122416577276023e-10
  6.2000000000000000e-01   1.5157419328734219e-10
  6.3000000000000000e-01   1.5187025651476613e-10
  6.4000000000000001e-01   1.5211354709404616e-10
  6.5000000000000002e-01   1.5230590732920184e-10
  6.6000000000000003e-01   1.5245016110654286e-10
  6.7000000000000004e-01   1.5255012691489685e-10
  6.8000000000000005e-01   1.5261032671681598e-10
  6.9000000000000006e-01   1.5263555360830952e-10
  7.0000000000000007e-01   1.5263050912645317e-10
  7.0999999999999996e-01   1.5259965696706642e-10
  7.1999999999999997e-01   1.5254731087618392e-10
  7.2999999999999998e-01   1.5247785415889955e-10
  7.3999999999999999e-01   1.5239593606011046e-10
  7.5000000000000000e-01   1.5230652344380288e-10
  7.6000000000000001e-01   1.5221477664424047e-10
  7.7000000000000002e-01   1.5212581283910970e-10
  7.8000000000000003e-01   1.5204447057075553e-10
  7.9000000000000004e-01   1.5197517555183322e-10
  8.0000000000000004e-01   1.5192194580723812e-10
  8.1000000000000005e-01   1.5188850119010770e-10
  8.2000000000000006e-01   1.5187839656327531e-10
  8.3000000000000007e-01   1.5189509886425282e-10
  8.3999999999999997e-01   1.5194196919073990e-10
  8.4999999999999998e-01   1.5202216600748023e-10
  8.5999999999999999e-01   1.5213852499903447e-10
  8.7000000000000000e-01   1.5229347714793935e-10
  8.8000000000000000e-01   1.5248904066150926e-10
  8.9000000000000001e-01   1.5272688172291088e-10
  9.0000000000000002e-01   1.5300840614076243e-10
  9.1000000000000003e-01   1.5333483438335361e-10
  9.2000000000000004e-01   1.5370722796627821e-10
  9.3000000000000005e-01   1.5412646460480672e-10
  9.4000000000000006e-01   1.5459318626818250e-10
  9.5000000000000007e-01   1.5510775518235881e-10
  9.5999999999999996e-01   1.5567024452687463e-10
  9.6999999999999997e-01   1.5628046979888833e-10
  9.7999999999999998e-01   1.5693804570539040e-10
  9.8999999999999999e-01   1.5764244269025713e-10
  1.0000000000000000e+00   1.5839302086533108e-10
  1.0100000000000000e+00   1.5918903344792600e-10
  1.0200000000000000e+00   1.6002960818080818e-10
  1.0300000000000000e+00   1.6091372510729689e-10
  1.0400000000000000e+00   1.6184020836752991e-10
  1.0500000000000000e+00   1.6280774013623904e-10
  1.0600000000000001e+00   1.6381489242324346e-10
  1.0700000000000001e+00   1.6486016383667193e-10
  1.0800000000000001e+00   1.6594200741469495e-10
  1.0900000000000001e+00   1.6705884175903164e-10
  1.1000000000000001e+00   1.6820904692415943e-10
  1.1100000000000001e+00   1.6939095377522870e-10
  1.1200000000000001e+00   1.7060283742797119e-10
  1.1300000000000001e+00   1.7184292167891254e-10
  1.1400000000000001e+00   1.7310939463545649e-10
  1.1500000000000001e+00   1.7440042983777664e-10
  1.1599999999999999e+00   1.7571420490937290e-10
  1.1699999999999999e+00   1.7704891183441244e-10
  1.1799999999999999e+00   1.7840275772894310e-10
  1.1899999999999999e+00   1.7977395968897143e-10
  1.2000000000000000e+00   1.8116073959243217e-10
  1.2100000000000000e+00   1.8256132376957662e-10
  1.2200000000000000e+00   1.8397394915444717e-10
  1.2300000000000000e+00   1.8539687386370273e-10
  1.2400000000000000e+00   1.8682838801514404e-10
  1.2500000000000000e+00   1.8826682087014066e-10
  1.2600000000000000e+00   1.8971054260657614e-10
  1.2700000000000000e+00   1.9115796182350640e-10
  1.2800000000000000e+00   1.9260752176085859e-10
  1.2900000000000000e+00   1.9405769835879745e-10
  1.3000000000000000e+00   1.9550700184041648e-10
  1.3100000000000001e+00   1.9695398141316634e-10
  1.3200000000000001e+00   1.9839723108628811e-10
  1.3300000000000001e+00   1.9983539423314974e-10
  1.3400000000000001e+00   2.0126716541056081e-10
  1.3500000000000001e+00   2.0269128946981810e-10
  1.3600000000000001e+00   2.0410655930293654e-10
  1.3700000000000001e+00   2.0551181402960619e-10
  1.3800000000000001e+00   2.0690593892370836e-10
  1.3900000000000001e+00   2.0828786728514963e-10
  1.4000000000000001e+00   2.0965658341077438e-10
  1.4099999999999999e+00   2.1101112533101749e-10
  1.4199999999999999e+00   2.1235058622663046e-10
  1.4299999999999999e+00   2.1367411419941402e-10
  1.4399999999999999e+00   2.1498091089119101e-10
  1.4500000000000000e+00   2.1627022990431426e-10
  1.4600000000000000e+00   2.1754137589100869e-10
  1.4700000000000000e+00   2.1879370466324005e-10
  1.4800000000000000e+00   2.2002662404649159e-10
  1.4900000000000000e+00   2.2123959479176499e-10
  1.5000000000000000e+00   2.2243213084797376e-10
  1.5100000000000000e+00   2.2360379863588188e-10
  1.5200000000000000e+00   2.2475421543828109e-10
  1.5300000000000000e+00   2.2588304737352918e-10
  1.5400000000000000e+00   2.2699000749022256e-10
  1.5500000000000000e+00   2.2807485431230842e-10
  1.5600000000000001e+00   2.2913739081940832e-10
  1.5700000000000001e+00   2.3017746355922390e-10
  1.5800000000000001e+00   2.3119496149626323e-10
  1.5900000000000001e+00   2.3218981432556760e-10
  1.6000000000000001e+00   2.3316199023106031e-10
  1.6100000000000001e+00   2.3411149330315030e-10
  1.6200000000000001e+00   2.3503836093363005e-10
  1.6300000000000001e+00   2.3594266144358167e-10
  1.6400000000000001e+00   2.3682449202573421e-10
  1.6500000000000001e+00   2.3768397689946547e-10
  1.6600000000000001e+00   2.3852126547814236e-10
  1.6699999999999999e+00   2.3933653037319398e-10
  1.6799999999999999e+00   2.4012996517835785e-10
  1.6899999999999999e+00   2.4090178211817379e-10
  1.7000000000000000e+00   2.4165220973292112e-10
  1.7100000000000000e+00   2.4238149076984884e-10
  1.7200000000000000e+00   2.4308988037030107e-10
  1.7300000000000000e+00   2.4377764453430679e-10
  1.7400000000000000e+00   2.4444505876576612e-10
  1.7500000000000000e+00   2.4509240678736736e-10
  1.7600000000000000e+00   2.4571997926251391e-10
  1.7700000000000000e+00   2.4632807253847373e-10
  1.7800000000000000e+00   2.4691698748725680e-10
  1.7900000000000000e+00   2.4748702853804460e-10
  1.8000000000000000e+00   2.4803850296373994e-10
  1.8100000000000001e+00   2.4857172042575054e-10
  1.8200000000000001e+00   2.4908699272776155e-10
  1.8300000000000001e+00   2.4958463370648944e-10
  1.8400000000000001e+00   2.5006495920200101e-10
  1.8500000000000001e+00   2.5052828708920090e-10
  1.8600000000000001e+00   2.5097493739208486e-10
  1.8700000000000001e+00   2.5140523252252322e-10
  1.8800000000000001e+00   2.5181949767769370e-10
  1.8900000000000001e+00   2.5221806140196658e-10
  1.9000000000000001e+00   2.5260125628671511e-10
  1.9100000000000001e+00   2.5296941976173146e-10
  1.9199999999999999e+00   2.5332289493271840e-10
  1.9299999999999999e+00   2.5366203143738501e-10
  1.9399999999999999e+00   2.5398718631642707e-10
  1.9500000000000000e+00   2.5429872491225149e-10
  1.9600000000000000e+00   2.5459702181019300e-10
  1.9700000000000000e+00   2.5488246182506602e-10
  1.9800000000000000e+00   2.5515544101796241e-10
  1.9900000000000000e+00   2.5541636771405106e-10
  2.0000000000000000e+00   2.5566566348835212e-10
  2.0100000000000002e+00   2.5590376409362257e-10
  2.0200000000000000e+00   2.5613112031753649e-10
  2.0300000000000002e+00   2.5634819876800329e-10
  2.0400000000000000e+00   2.5655548259011520e-10
  2.0499999999999998e+00   2.5675347211457016e-10
  2.0600000000000001e+00   2.5694268542855634e-10
  2.0699999999999998e+00   2.5712365885137473e-10
  2.0800000000000001e+00   2.5729694729310655e-10
  2.0899999999999999e+00   2.5746312447708441e-10
  2.1000000000000001e+00   2.5762278301401083e-10
  2.1099999999999999e+00   2.5777653432351601e-10
  2.1200000000000001e+00   2.5792500840404079e-10
  2.1299999999999999e+00   2.5806885345246940e-10
  2.1400000000000001e+00   2.5820873533179003e-10
  2.1499999999999999e+00   2.5834533688086131e-10
  2.1600000000000001e+00   2.5847935705800075e-10
  2.1699999999999999e+00   2.5861150991118836e-10
  2.1800000000000002e+00   2.5874252337188910e-10
  2.1899999999999999e+00   2.5887313787502464e-10
  2.2000000000000002e+00   2.5900410481224993e-10
  2.2100000000000000e+00   2.5913618482794624e-10
  2.2200000000000002e+00   2.5927014596717121e-10
  2.2300000000000000e+00   2.5940676168333832e-10
  2.2400000000000002e+00   2.5954680871230918e-10
  2.2500000000000000e+00   2.5969106482003129e-10
  2.2600000000000002e+00   2.5984030643312522e-10
  2.2700000000000000e+00   2.5999530616510876e-10
  2.2800000000000002e+00   2.6015683025406517e-10
  2.2900000000000000e+00   2.6032563592943892e-10
  2.3000000000000003e+00   2.6050246872596119e-10
  2.3100000000000001e+00   2.6068805976186421e-10
  2.3199999999999998e+00   2.6088312299741269e-10
  2.3300000000000001e+00   2.6108835248917441e-10
  2.3399999999999999e+00   2.6130441965572703e-10
  2.3500000000000001e+00   2.6153197057144394e-10
  2.3599999999999999e+00   2.6177162330599099e-10
  2.3700000000000001e+00   2.6202396532758805e-10
  2.3799999999999999e+00   2.6228955098757821e-10
  2.3900000000000001e+00   2.6256889910251365e-10
  2.3999999999999999e+00   2.6286249064824318e-10
  2.4100000000000001e+00   2.6317076657886551e-10
  2.4199999999999999e+00   2.6349412578224300e-10
  2.4300000000000002e+00   2.6383292318305514e-10
  2.4399999999999999e+00   2.6418746800384893e-10
  2.4500000000000002e+00   2.6455802219386769e-10
  2.4600000000000000e+00   2.6494479903434697e-10
  2.4700000000000002e+00   2.6534796192743550e-10
  2.4800000000000000e+00   2.6576762337411630e-10
  2.4900000000000002e+00   2.6620384414476115e-10
  2.5000000000000000e+00   2.6665663264448367e-10
  2.5100000000000002e+00   2.6712594447434892e-10
  2.5200000000000000e+00   2.6761168218865342e-10
  2.5300000000000002e+00   2.6811369524771432e-10
  2.5400000000000000e+00   2.6863178016474114e-10
  2.5500000000000003e+00   2.6916568084431385e-10
  2.5600000000000001e+00   2.6971508910883828e-10
  2.5699999999999998e+00   2.7027964540822453e-10
  2.5800000000000001e+00   2.7085893970708109e-10
  2.5899999999999999e+00   2.7145251254301670e-10
  2.6000000000000001e+00   2.7205985624916651e-10
  2.6099999999999999e+00   2.7268041633370210e-10
  2.6200000000000001e+00   2.7331359300874455e-10
  2.6299999999999999e+00   2.7395874286070005e-10
  2.6400000000000001e+00   2.7461518065356379e-10
  2.6499999999999999e+00   2.7528218125628495e-10
  2.6600000000000001e+00   2.7595898168488879e-10
  2.6699999999999999e+00   2.7664478324980556e-10
  2.6800000000000002e+00   2.7733875379874281e-10
  2.6899999999999999e+00   2.7804003004541189e-10
  2.7000000000000002e+00   2.7874771997443580e-10
  2.7100000000000000e+00   2.7946090531274327e-10
  2.7200000000000002e+00   2.8017864405770378e-10
  2.7300000000000000e+00   2.8089997305218495e-10
  2.7400000000000002e+00   2.8162391059667805e-10
  2.7500000000000000e+00   2.8234945908865855e-10
  2.7600000000000002e+00   2.8307560767946655e-10
  2.7700000000000000e+00   2.8380133493917430e-10
  2.7800000000000002e+00   2.8452561152013058e-10
  2.7900000000000000e+00   2.8524740281010022e-10
  2.8000000000000003e+00   2.8596567156614633e-10
  2.8100000000000001e+00   2.8667938052061627e-10
  2.8199999999999998e+00   2.8738749495084472e-10
  2.8300000000000001e+00   2.8808898520446696e-10
  2.8399999999999999e+00   2.8878282917259538e-10
  2.8500000000000001e+00   2.8946801470350960e-10
  2.8599999999999999e+00   2.9014354194996920e-10
  2.8700000000000001e+00   2.9080842564371838e-10
  2.8799999999999999e+00   2.9146169729123492e-10
  2.8900000000000001e+00   2.9210240728524476e-10
  2.8999999999999999e+00   2.9272962692701197e-10
  2.9100000000000001e+00   2.9334245035491347e-10
  2.9199999999999999e+00   2.9393999637533495e-10
  2.9300000000000002e+00   2.9452141019247454e-10
  2.9399999999999999e+00   2.9508586503420376e-10
  2.9500000000000002e+00   2.9563256367169548e-10
  2.9600000000000000e+00   2.9616073983107419e-10
  2.9700000000000002e+00   2.9666965949586646e-10
  2.9800000000000000e+00   2.9715862209952526e-10
  2.9900000000000002e+00   2.9762696160777838e-10
  3.0000000000000000e+00   2.9807404749101307e-10
  3.0100000000000002e+00   2.9849928558734489e-10
  3.0200000000000000e+00   2.9890211885744370e-10
  3.0300000000000002e+00   2.9928202803257704e-10
  3.0400000000000000e+00   2.9963853215768380e-10
  3.0500000000000003e+00   2.9997118903160660e-10
  3.0600000000000001e+00   3.0027959554688082e-10
  3.0700000000000003e+00   3.0056338793171356e-10
  3.0800000000000001e+00   3.0082224189698545e-10
  3.0899999999999999e+00   3.0105587269128444e-10
  3.1000000000000001e+00   3.0126403506712275e-10
  3.1099999999999999e+00   3.0144652316160831e-10
  3.1200000000000001e+00   3.0160317029493112e-10
  3.1299999999999999e+00   3.0173384869008514e-10
  3.1400000000000001e+00   3.0183846911728132e-10
  3.1499999999999999e+00   3.0191698046651835e-10
  3.1600000000000001e+00   3.0196936925177577e-10
  3.1699999999999999e+00   3.0199565905026885e-10
  3.1800000000000002e+00   3.0199590988018798e-10
  3.1899999999999999e+00   3.0197021752029827e-10
  3.2000000000000002e+00   3.0191871277474187e-10
  3.2100000000000000e+00   3.0184156068633004e-10
  3.2200000000000002e+00   3.0173895970156027e-10
  3.2300000000000000e+00   3.0161114079052764e-10
  3.2400000000000002e+00   3.0145836652484368e-10
  3.2500000000000000e+00   3.0128093011660793e-10
  3.2600000000000002e+00   3.0107915442141732e-10
  3.2700000000000000e+00   3.0085339090833624e-10
  3.2800000000000002e+00   3.0060401859969013e-10
  3.2900000000000000e+00   3.0033144298348076e-10
  3.3000000000000003e+00   3.0003609490115539e-10
  3.3100000000000001e+00   2.9971842941339873e-10
  3.3200000000000003e+00   2.9937892464653680e-10
  3.3300000000000001e+00   2.9901808062207507e-10
  3.3399999999999999e+00   2.9863641807181324e-10
  3.3500000000000001e+00   2.9823447724089545e-10
  3.3599999999999999e+00   2.9781281668107632e-10
  3.3700000000000001e+00   2.9737201203638574e-10
  3.3799999999999999e+00   2.9691265482328579e-10
  3.3900000000000001e+00   2.9643535120730917e-10
  3.3999999999999999e+00   2.9594072077806388e-10
  3.4100000000000001e+00   2.9542939532437813e-10
  3.4199999999999999e+00   2.9490201761124558e-10
  3.4300000000000002e+00   2.9435924016011790e-10
  3.4399999999999999e+00   2.9380172403397349e-10
  3.4500000000000002e+00   2.9323013762847368e-10
  3.4600000000000000e+00   2.9264515547040556e-10
  3.4700000000000002e+00   2.9204745702449169e-10
  3.4800000000000000e+00   2.9143772550954334e-10
  3.4900000000000002e+00   2.9081664672482174e-10
  3.5000000000000000e+00   2.9018490788738090e-10
  3.5100000000000002e+00   2.8954319648106909e-10
  3.5200000000000000e+00   2.8889219911779187e-10
  3.5300000000000002e+00   2.8823260041156557e-10
  3.5400000000000000e+00   2.8756508186583199e-10
  3.5500000000000003e+00   2.8689032077446026e-10
  3.5600000000000001e+00   2.8620898913682626e-10
  3.5700000000000003e+00   2.8552175258733591e-10
  3.5800000000000001e+00   2.8482926933975415e-10
  3.5899999999999999e+00   2.8413218914669968e-10
  3.6000000000000001e+00   2.8343115227468586e-10
  3.6099999999999999e+00   2.8272678849511298e-10
  3.6200000000000001e+00   2.8201971609165626e-10
  3.6299999999999999e+00   2.8131054088454151e-10
  3.6400000000000001e+00   2.8059985527225623e-10
  3.6499999999999999e+00   2.7988823729130684e-10
  3.6600000000000001e+00   2.7917624969470113e-10
  3.6699999999999999e+00   2.7846443904990952e-10
  3.6800000000000002e+00   2.7775333485713166e-10
  3.6899999999999999e+00   2.7704344868877337e-10
  3.7000000000000002e+00   2.7633527335111739e-10
  3.7100000000000000e+00   2.7562928206923904e-10
  3.7200000000000002e+00   2.7492592769629860e-10
  3.7300000000000000e+00   2.7422564194840156e-10
  3.7400000000000002e+00   2.7352883466628212e-10
  3.7500000000000000e+00   2.7283589310511939e-10
  3.7600000000000002e+00   2.7214718125384356e-10
  3.7700000000000000e+00   2.7146303918532606e-10
  3.7800000000000002e+00   2.7078378243888067e-10
  3.7900000000000000e+00   2.7010970143652064e-10
  3.8000000000000003e+00   2.6944106093443065e-10
  3.8100000000000001e+00   2.6877809951111438e-10
  3.8200000000000003e+00   2.6812102909366817e-10
  3.8300000000000001e+00   2.6747003452361760e-10
  3.8399999999999999e+00   2.6682527316372598e-10
  3.8500000000000001e+00   2.6618687454714925e-10
  3.8599999999999999e+00   2.6555494007026813e-10
  3.8700000000000001e+00   2.6492954273047502e-10
  3.8799999999999999e+00   2.6431072691013841e-10
  3.8900000000000001e+00   2.6369850820789352e-10
  3.8999999999999999e+00   2.6309287331834280e-10
  3.9100000000000001e+00   2.6249377996116167e-10
  3.9199999999999999e+00   2.6190115686052640e-10
  3.9300000000000002e+00   2.6131490377568220e-10
  3.9399999999999999e+00   2.6073489158337905e-10
  3.9500000000000002e+00   2.6016096241279558e-10
  3.9600000000000000e+00   2.5959292983346937e-10
  3.9700000000000002e+00   2.5903057909663681e-10
