# First column is time, second column is the perturbation of detonation velocity.
  0.0000000000000000e+00   1.0000000000000000e-10
  5.0000000000000001e-03   1.0023104240232188e-10
  1.0000000000000000e-02   1.0046219838097091e-10
  1.4999999999999999e-02   1.0069707441994528e-10
  2.0000000000000000e-02   1.0093624632498105e-10
  2.5000000000000001e-02   1.0117956140298209e-10
  2.9999999999999999e-02   1.0142685308463132e-10
  3.5000000000000003e-02   1.0167807947779958e-10
  4.0000000000000001e-02   1.0193331225053903e-10
  4.4999999999999998e-02   1.0219262719456457e-10
  5.0000000000000003e-02   1.0245612026443447e-10
  5.5000000000000000e-02   1.0272387193311542e-10
  5.9999999999999998e-02   1.0299596779648347e-10
  6.5000000000000002e-02   1.0327249217131336e-10
  7.0000000000000007e-02   1.0355353073139699e-10
  7.4999999999999997e-02   1.0383917286752524e-10
  8.0000000000000002e-02   1.0412950790706947e-10
  8.5000000000000006e-02   1.0442462885891021e-10
  8.9999999999999997e-02   1.0472462934719729e-10
  9.5000000000000001e-02   1.0502960570897296e-10
  1.0000000000000001e-01   1.0533965586926239e-10
  1.0500000000000000e-01   1.0565487981516465e-10
  1.1000000000000000e-01   1.0597537962437348e-10
  1.1500000000000000e-01   1.0630125924860468e-10
  1.2000000000000000e-01   1.0663262484111982e-10
  1.2500000000000000e-01   1.0696958448798932e-10
  1.3000000000000000e-01   1.0731224843635588e-10
  1.3500000000000001e-01   1.0766072896840128e-10
  1.4000000000000001e-01   1.0801514047666247e-10
  1.4499999999999999e-01   1.0837559944719368e-10
  1.4999999999999999e-01   1.0874222444931309e-10
  1.5500000000000000e-01   1.0911513615196218e-10
  1.6000000000000000e-01   1.0949445728816752e-10
  1.6500000000000001e-01   1.0988031265909107e-10
  1.7000000000000001e-01   1.1027282909620834e-10
  1.7500000000000002e-01   1.1067213543993512e-10
  1.7999999999999999e-01   1.1107836249810457e-10
  1.8500000000000000e-01   1.1149164300040302e-10
  1.9000000000000000e-01   1.1191211154427262e-10
  1.9500000000000001e-01   1.1233990452757028e-10
  2.0000000000000001e-01   1.1277516007398706e-10
  2.0500000000000002e-01   1.1321801794306126e-10
  2.0999999999999999e-01   1.1366861942953392e-10
  2.1500000000000000e-01   1.1412710724689155e-10
  2.2000000000000000e-01   1.1459362539608987e-10
  2.2500000000000001e-01   1.1506831901722303e-10
  2.3000000000000001e-01   1.1555133422273753e-10
  2.3500000000000001e-01   1.1604281791109039e-10
  2.3999999999999999e-01   1.1654291755865679e-10
  2.4500000000000000e-01   1.1705178098869232e-10
  2.5000000000000000e-01   1.1756955611511435e-10
  2.5500000000000000e-01   1.1809639065942459e-10
  2.6000000000000001e-01   1.1863243183859058e-10
  2.6500000000000001e-01   1.1917782602177625e-10
  2.7000000000000002e-01   1.1973271835367021e-10
  2.7500000000000002e-01   1.2029725234200279e-10
  2.8000000000000003e-01   1.2087156940683184e-10
  2.8500000000000003e-01   1.2145580838898729e-10
  2.8999999999999998e-01   1.2205010501505529e-10
  2.9499999999999998e-01   1.2265459131615560e-10
  2.9999999999999999e-01   1.2326939499772895e-10
  3.0499999999999999e-01   1.2389463875750458e-10
  3.1000000000000000e-01   1.2453043954878766e-10
  3.1500000000000000e-01   1.2517690778622497e-10
  3.2000000000000001e-01   1.2583414649123374e-10
  3.2500000000000001e-01   1.2650225037436237e-10
  3.3000000000000002e-01   1.2718130485196881e-10
  3.3500000000000002e-01   1.2787138499477538e-10
  3.4000000000000002e-01   1.2857255440609395e-10
  3.4500000000000003e-01   1.2928486402781393e-10
  3.5000000000000003e-01   1.3000835087262477e-10
  3.5499999999999998e-01   1.3074303668141689e-10
  3.5999999999999999e-01   1.3148892650535906e-10
  3.6499999999999999e-01   1.3224600721283340e-10
  3.7000000000000000e-01   1.3301424592219614e-10
  3.7500000000000000e-01   1.3379358836225363e-10
  3.8000000000000000e-01   1.3458395716340784e-10
  3.8500000000000001e-01   1.3538525008363416e-10
  3.9000000000000001e-01   1.3619733817482675e-10
  3.9500000000000002e-01   1.3702006389657623e-10
  4.0000000000000002e-01   1.3785323918615163e-10
  4.0500000000000003e-01   1.3869664349533082e-10
  4.1000000000000003e-01   1.3955002180675828e-10
  4.1500000000000004e-01   1.4041308264472149e-10
  4.1999999999999998e-01   1.4128549609757965e-10
  4.2499999999999999e-01   1.4216689187155684e-10
  4.2999999999999999e-01   1.4305685739820478e-10
  4.3500000000000000e-01   1.4395493602048028e-10
  4.4000000000000000e-01   1.4486062528507141e-10
  4.4500000000000001e-01   1.4577337537125589e-10
  4.5000000000000001e-01   1.4669258768913524e-10
  4.5500000000000002e-01   1.4761761368249012e-10
  4.6000000000000002e-01   1.4854775387365998e-10
  4.6500000000000002e-01   1.4948225718966206e-10
  4.7000000000000003e-01   1.5042032061014766e-10
  4.7500000000000003e-01   1.5136108917862940e-10
  4.7999999999999998e-01   1.5230365641858604e-10
  4.8499999999999999e-01   1.5324706519548428e-10
  4.8999999999999999e-01   1.5419030906427886e-10
  4.9500000000000000e-01   1.5513233413955103e-10
  5.0000000000000000e-01   1.5607204152194977e-10
  5.0500000000000000e-01   1.5700829031000449e-10
  5.1000000000000001e-01   1.5793990122061748e-10
  5.1500000000000001e-01   1.5886566083459853e-10
  5.2000000000000002e-01   1.5978432647552687e-10
  5.2500000000000002e-01   1.6069463172104179e-10
  5.3000000000000003e-01   1.6159529253553468e-10
  5.3500000000000003e-01   1.6248501400221920e-10
  5.4000000000000004e-01   1.6336249762099037e-10
  5.4500000000000004e-01   1.6422644912650246e-10
  5.5000000000000004e-01   1.6507558676882619e-10
  5.5500000000000005e-01   1.6590864998719729e-10
  5.6000000000000005e-01   1.6672440839608417e-10
  5.6500000000000006e-01   1.6752167099239037e-10
  5.7000000000000006e-01   1.6829929548347080e-10
  5.7500000000000007e-01   1.6905619762806943e-10
  5.7999999999999996e-01   1.6979136047658903e-10
  5.8499999999999996e-01   1.7050384339353889e-10
  5.8999999999999997e-01   1.7119279074376896e-10
  5.9499999999999997e-01   1.7185744012532263e-10
  5.9999999999999998e-01   1.7249713003544759e-10
  6.0499999999999998e-01   1.7311130686253320e-10
  6.0999999999999999e-01   1.7369953110528755e-10
  6.1499999999999999e-01   1.7426148273122801e-10
  6.2000000000000000e-01   1.7479696559921970e-10
  6.2500000000000000e-01   1.7530591088504414e-10
  6.3000000000000000e-01   1.7578837946444950e-10
  6.3500000000000001e-01   1.7624456322441576e-10
  6.4000000000000001e-01   1.7667478529002946e-10
  6.4500000000000002e-01   1.7707949917097301e-10
  6.5000000000000002e-01   1.7745928684781560e-10
  6.5500000000000003e-01   1.7781485583360687e-10
  6.6000000000000003e-01   1.7814703526043345e-10
  6.6500000000000004e-01   1.7845677105329354e-10
  6.7000000000000004e-01   1.7874512026463612e-10
  6.7500000000000004e-01   1.7901324465205109e-10
  6.8000000000000005e-01   1.7926240358879456e-10
  6.8500000000000005e-01   1.7949394640200038e-10
  6.9000000000000006e-01   1.7970930423665558e-10
  6.9500000000000006e-01   1.7990998154472556e-10
  7.0000000000000007e-01   1.8009754729833263e-10
  7.0499999999999996e-01   1.8027362602379003e-10
  7.0999999999999996e-01   1.8043988874974316e-10
  7.1499999999999997e-01   1.8059804395786501e-10
  7.1999999999999997e-01   1.8074982861872192e-10
  7.2499999999999998e-01   1.8089699938877013e-10
  7.2999999999999998e-01   1.8104132403719014e-10
  7.3499999999999999e-01   1.8118457316358395e-10
  7.3999999999999999e-01   1.8132851225968643e-10
  7.4500000000000000e-01   1.8147489416029759e-10
  7.5000000000000000e-01   1.8162545192080863e-10
  7.5500000000000000e-01   1.8178189215108115e-10
  7.6000000000000001e-01   1.8194588882818657e-10
  7.6500000000000001e-01   1.8211907760363882e-10
  7.7000000000000002e-01   1.8230305061441980e-10
  7.7500000000000002e-01   1.8249935180125559e-10
  7.8000000000000003e-01   1.8270947273234977e-10
  7.8500000000000003e-01   1.8293484892610804e-10
  7.9000000000000004e-01   1.8317685666226960e-10
  7.9500000000000004e-01   1.8343681026735992e-10
  8.0000000000000004e-01   1.8371595985737161e-10
  8.0500000000000005e-01   1.8401548951815139e-10
  8.1000000000000005e-01   1.8433651590200245e-10
  8.1500000000000006e-01   1.8468008721749596e-10
  8.2000000000000006e-01   1.8504718258841962e-10
  8.2500000000000007e-01   1.8543871175706294e-10
  8.3000000000000007e-01   1.8585551510668083e-10
  8.3499999999999996e-01   1.8629836397789774e-10
  8.3999999999999997e-01   1.8676796125399940e-10
  8.4499999999999997e-01   1.8726494219047861e-10
  8.4999999999999998e-01   1.8778987546478218e-10
  8.5499999999999998e-01   1.8834326442298107e-10
  8.5999999999999999e-01   1.8892554850094464e-10
  8.6499999999999999e-01   1.8953710479859840e-10
  8.7000000000000000e-01   1.9017824978688634e-10
  8.7500000000000000e-01   1.9084924112817896e-10
  8.8000000000000000e-01   1.9155027959200359e-10
  8.8500000000000001e-01   1.9228151104914177e-10
  8.9000000000000001e-01   1.9304302852829943e-10
  8.9500000000000002e-01   1.9383487432071897e-10
  9.0000000000000002e-01   1.9465704211923358e-10
  9.0500000000000003e-01   1.9550947917937988e-10
  9.1000000000000003e-01   1.9639208849126055e-10
  9.1500000000000004e-01   1.9730473095188306e-10
  9.2000000000000004e-01   1.9824722752869517e-10
  9.2500000000000004e-01   1.9921936140598901e-10
  9.3000000000000005e-01   2.0022088010672101e-10
  9.3500000000000005e-01   2.0125149758317353e-10
  9.4000000000000006e-01   2.0231089627064419e-10
  9.4500000000000006e-01   2.0339872909911772e-10
  9.5000000000000007e-01   2.0451462145855344e-10
  9.5500000000000007e-01   2.0565817311407001e-10
  9.5999999999999996e-01   2.0682896006790578e-10
  9.6499999999999997e-01   2.0802653636557061e-10
  9.6999999999999997e-01   2.0925043584412939e-10
  9.7499999999999998e-01   2.1050017382099259e-10
  9.7999999999999998e-01   2.1177524872202811e-10
  9.8499999999999999e-01   2.1307514364818775e-10
  9.8999999999999999e-01   2.1439932788016190e-10
  9.9500000000000000e-01   2.1574725832093549e-10
  1.0000000000000000e+00   2.1711838087633651e-10
  1.0050000000000001e+00   2.1851213177396798e-10
  1.0100000000000000e+00   2.1992793882110052e-10
  1.0150000000000001e+00   2.2136522260231025e-10
  1.0200000000000000e+00   2.2282339761781663e-10
  1.0249999999999999e+00   2.2430187336361785e-10
  1.0300000000000000e+00   2.2580005535465102e-10
  1.0349999999999999e+00   2.2731734609231168e-10
  1.0400000000000000e+00   2.2885314597775901e-10
  1.0449999999999999e+00   2.3040685417251032e-10
  1.0500000000000000e+00   2.3197786940788071e-10
  1.0549999999999999e+00   2.3356559074488793e-10
  1.0600000000000001e+00   2.3516941828626280e-10
  1.0649999999999999e+00   2.3678875384224085e-10
  1.0700000000000001e+00   2.3842300155182414e-10
  1.0750000000000000e+00   2.4007156846121172e-10
  1.0800000000000001e+00   2.4173386506109985e-10
  1.0850000000000000e+00   2.4340930578453640e-10
  1.0900000000000001e+00   2.4509730946701860e-10
  1.0950000000000000e+00   2.4679729977049066e-10
  1.1000000000000001e+00   2.4850870557288459e-10
  1.1050000000000000e+00   2.5023096132482618e-10
  1.1100000000000001e+00   2.5196350737507524e-10
  1.1150000000000000e+00   2.5370579026628149e-10
  1.1200000000000001e+00   2.5545726300255324e-10
  1.1250000000000000e+00   2.5721738529033512e-10
  1.1300000000000001e+00   2.5898562375404773e-10
  1.1350000000000000e+00   2.6076145212788577e-10
  1.1400000000000001e+00   2.6254435142515273e-10
  1.1450000000000000e+00   2.6433381008645932e-10
  1.1500000000000001e+00   2.6612932410807537e-10
  1.1550000000000000e+00   2.6793039715168121e-10
  1.1599999999999999e+00   2.6973654063672516e-10
  1.1650000000000000e+00   2.7154727381656021e-10
  1.1699999999999999e+00   2.7336212383947576e-10
  1.1750000000000000e+00   2.7518062579572626e-10
  1.1799999999999999e+00   2.7700232275158608e-10
  1.1850000000000001e+00   2.7882676577145989e-10
  1.1899999999999999e+00   2.8065351392900578e-10
  1.1950000000000001e+00   2.8248213430821282e-10
  1.2000000000000000e+00   2.8431220199533474e-10
  1.2050000000000001e+00   2.8614330006253612e-10
  1.2100000000000000e+00   2.8797501954408872e-10
  1.2150000000000001e+00   2.8980695940591496e-10
  1.2200000000000000e+00   2.9163872650923631e-10
  1.2250000000000001e+00   2.9346993556907327e-10
  1.2300000000000000e+00   2.9530020910828509e-10
  1.2350000000000001e+00   2.9712917740784137e-10
  1.2400000000000000e+00   2.9895647845395374e-10
  1.2450000000000001e+00   3.0078175788270332e-10
  1.2500000000000000e+00   3.0260466892274376e-10
  1.2550000000000001e+00   3.0442487233665118e-10
  1.2600000000000000e+00   3.0624203636146643e-10
  1.2650000000000001e+00   3.0805583664893743e-10
  1.2700000000000000e+00   3.0986595620596787e-10
  1.2750000000000001e+00   3.1167208533573080e-10
  1.2800000000000000e+00   3.1347392157990576e-10
  1.2849999999999999e+00   3.1527116966245952e-10
  1.2900000000000000e+00   3.1706354143538205e-10
  1.2949999999999999e+00   3.1885075582675580e-10
  1.3000000000000000e+00   3.2063253879152563e-10
  1.3049999999999999e+00   3.2240862326532207e-10
  1.3100000000000001e+00   3.2417874912163803e-10
  1.3149999999999999e+00   3.2594266313268882e-10
  1.3200000000000001e+00   3.2770011893422760e-10
  1.3250000000000000e+00   3.2945087699457514e-10
  1.3300000000000001e+00   3.3119470458811993e-10
  1.3350000000000000e+00   3.3293137577350148e-10
  1.3400000000000001e+00   3.3466067137668832e-10
  1.3450000000000000e+00   3.3638237897913420e-10
  1.3500000000000001e+00   3.3809629291116080e-10
  1.3550000000000000e+00   3.3980221425073261e-10
  1.3600000000000001e+00   3.4149995082772375e-10
  1.3650000000000000e+00   3.4318931723377336e-10
  1.3700000000000001e+00   3.4487013483782643e-10
  1.3750000000000000e+00   3.4654223180738016e-10
  1.3800000000000001e+00   3.4820544313548455e-10
  1.3850000000000000e+00   3.4985961067350073e-10
  1.3900000000000001e+00   3.5150458316957439e-10
  1.3950000000000000e+00   3.5314021631279804e-10
  1.4000000000000001e+00   3.5476637278297547e-10
  1.4050000000000000e+00   3.5638292230588434e-10
  1.4099999999999999e+00   3.5798974171391275e-10
  1.4150000000000000e+00   3.5958671501189955e-10
  1.4199999999999999e+00   3.6117373344800134e-10
  1.4250000000000000e+00   3.6275069558935172e-10
  1.4299999999999999e+00   3.6431750740227363e-10
  1.4350000000000001e+00   3.6587408233675532e-10
  1.4399999999999999e+00   3.6742034141487375e-10
  1.4450000000000001e+00   3.6895621332282682e-10
  1.4500000000000000e+00   3.7048163450618583e-10
  1.4550000000000001e+00   3.7199654926795890e-10
  1.4600000000000000e+00   3.7350090986902058e-10
  1.4650000000000001e+00   3.7499467663043193e-10
  1.4700000000000000e+00   3.7647781803712526e-10
  1.4750000000000001e+00   3.7795031084243688e-10
  1.4800000000000000e+00   3.7941214017288644e-10
  1.4850000000000001e+00   3.8086329963261650e-10
  1.4900000000000000e+00   3.8230379140684696e-10
  1.4950000000000001e+00   3.8373362636368411e-10
  1.5000000000000000e+00   3.8515282415359864e-10
  1.5050000000000001e+00   3.8656141330584684e-10
  1.5100000000000000e+00   3.8795943132110868e-10
  1.5150000000000001e+00   3.8934692475957035e-10
  1.5200000000000000e+00   3.9072394932369407e-10
  1.5250000000000001e+00   3.9209056993485156e-10
  1.5300000000000000e+00   3.9344686080304223e-10
  1.5350000000000001e+00   3.9479290548887119e-10
  1.5400000000000000e+00   3.9612879695696045e-10
  1.5449999999999999e+00   3.9745463761997726e-10
  1.5500000000000000e+00   3.9877053937246215e-10
  1.5549999999999999e+00   4.0007662361362527e-10
  1.5600000000000001e+00   4.0137302125833092e-10
  1.5649999999999999e+00   4.0265987273546279e-10
  1.5700000000000001e+00   4.0393732797290380e-10
  1.5750000000000000e+00   4.0520554636839796e-10
  1.5800000000000001e+00   4.0646469674556801e-10
  1.5850000000000000e+00   4.0771495729440595e-10
  1.5900000000000001e+00   4.0895651549561549e-10
  1.5950000000000000e+00   4.1018956802818433e-10
  1.6000000000000001e+00   4.1141432065966314e-10
  1.6050000000000000e+00   4.1263098811863774e-10
  1.6100000000000001e+00   4.1383979394897910e-10
  1.6150000000000000e+00   4.1504097034548788e-10
  1.6200000000000001e+00   4.1623475797062970e-10
  1.6250000000000000e+00   4.1742140575212999e-10
  1.6300000000000001e+00   4.1860117066127938e-10
  1.6350000000000000e+00   4.1977431747184333e-10
  1.6400000000000001e+00   4.2094111849959949e-10
  1.6450000000000000e+00   4.2210185332256955e-10
  1.6500000000000001e+00   4.2325680848211913e-10
  1.6550000000000000e+00   4.2440627716516375e-10
  1.6600000000000001e+00   4.2555055886783558e-10
  1.6650000000000000e+00   4.2668995904102406e-10
  1.6699999999999999e+00   4.2782478871829942e-10
  1.6750000000000000e+00   4.2895536412681731e-10
  1.6799999999999999e+00   4.3008200628189453e-10
  1.6850000000000001e+00   4.3120504056599790e-10
  1.6899999999999999e+00   4.3232479629300977e-10
  1.6950000000000001e+00   4.3344160625866554e-10
  1.7000000000000000e+00   4.3455580627818391e-10
  1.7050000000000001e+00   4.3566773471212005e-10
  1.7100000000000000e+00   4.3677773198158838e-10
  1.7150000000000001e+00   4.3788614007403685e-10
  1.7200000000000000e+00   4.3899330204080446e-10
  1.7250000000000001e+00   4.4009956148776158e-10
  1.7300000000000000e+00   4.4120526206035651e-10
  1.7350000000000001e+00   4.4231074692444728e-10
  1.7400000000000000e+00   4.4341635824431863e-10
  1.7450000000000001e+00   4.4452243665929068e-10
  1.7500000000000000e+00   4.4562932076040306e-10
  1.7550000000000001e+00   4.4673734656858261e-10
  1.7600000000000000e+00   4.4784684701579512e-10
  1.7650000000000001e+00   4.4895815143061797e-10
  1.7700000000000000e+00   4.5007158502969708e-10
  1.7750000000000001e+00   4.5118746841651628e-10
  1.7800000000000000e+00   4.5230611708892451e-10
  1.7850000000000001e+00   4.5342784095678063e-10
  1.7900000000000000e+00   4.5455294387111279e-10
  1.7949999999999999e+00   4.5568172316611639e-10
  1.8000000000000000e+00   4.5681446921526224e-10
  1.8049999999999999e+00   4.5795146500279382e-10
  1.8100000000000001e+00   4.5909298571179334e-10
  1.8149999999999999e+00   4.6023929832996261e-10
  1.8200000000000001e+00   4.6139066127423802e-10
  1.8250000000000000e+00   4.6254732403524007e-10
  1.8300000000000001e+00   4.6370952684257531e-10
  1.8350000000000000e+00   4.6487750035187315e-10
  1.8400000000000001e+00   4.6605146535443063e-10
  1.8450000000000000e+00   4.6723163251025387e-10
  1.8500000000000001e+00   4.6841820210521133e-10
  1.8550000000000000e+00   4.6961136383296817e-10
  1.8600000000000001e+00   4.7081129660228703e-10
  1.8650000000000000e+00   4.7201816837023251e-10
  1.8700000000000001e+00   4.7323213600172743e-10
  1.8750000000000000e+00   4.7445334515587646e-10
  1.8800000000000001e+00   4.7568193019937293e-10
  1.8850000000000000e+00   4.7691801414726891e-10
  1.8900000000000001e+00   4.7816170863131780e-10
  1.8950000000000000e+00   4.7941311389602141e-10
  1.9000000000000001e+00   4.8067231882248984e-10
  1.9050000000000000e+00   4.8193940098012394e-10
  1.9100000000000001e+00   4.8321442670610054e-10
  1.9150000000000000e+00   4.8449745121256690e-10
  1.9199999999999999e+00   4.8578851872141799e-10
  1.9250000000000000e+00   4.8708766262644851e-10
  1.9299999999999999e+00   4.8839490568264077e-10
  1.9350000000000001e+00   4.8971026022229598e-10
  1.9399999999999999e+00   4.9103372839765301e-10
  1.9450000000000001e+00   4.9236530244961151e-10
  1.9500000000000000e+00   4.9370496500210575e-10
  1.9550000000000001e+00   4.9505268938164656e-10
  1.9600000000000000e+00   4.9640843996149828e-10
  1.9650000000000001e+00   4.9777217252989993e-10
  1.9700000000000000e+00   4.9914383468171374e-10
  1.9750000000000001e+00   5.0052336623283396e-10
  1.9800000000000000e+00   5.0191069965662512e-10
  1.9850000000000001e+00   5.0330576054166053e-10
