# First column is time, second column is the perturbation of detonation velocity.
  0.0000000000000000e+00   1.0000000000000000e-10
  5.0000000000000001e-03   1.0030604480214769e-10
  1.0000000000000000e-02   1.0051468795659259e-10
  1.4999999999999999e-02   1.0068928927734216e-10
  2.0000000000000000e-02   1.0086697447129963e-10
  2.5000000000000001e-02   1.0106706630806897e-10
  2.9999999999999999e-02   1.0129675602353890e-10
  3.5000000000000003e-02   1.0155515418370665e-10
  4.0000000000000001e-02   1.0183637023137991e-10
  4.4999999999999998e-02   1.0213195894889625e-10
  5.0000000000000003e-02   1.0243288217312217e-10
  5.5000000000000000e-02   1.0273102860211227e-10
  5.9999999999999998e-02   1.0302028837640548e-10
  6.5000000000000002e-02   1.0329717352554526e-10
  7.0000000000000007e-02   1.0356099512224353e-10
  7.4999999999999997e-02   1.0381364028201040e-10
  8.0000000000000002e-02   1.0405902636306653e-10
  8.5000000000000006e-02   1.0430233759703346e-10
  8.9999999999999997e-02   1.0454916528612192e-10
  9.5000000000000001e-02   1.0480467380005168e-10
  1.0000000000000001e-01   1.0507290077626453e-10
  1.0500000000000000e-01   1.0535627342614948e-10
  1.1000000000000000e-01   1.0565538772670910e-10
  1.1500000000000000e-01   1.0596905862319677e-10
  1.2000000000000000e-01   1.0629461250274579e-10
  1.2500000000000000e-01   1.0662836289365032e-10
  1.3000000000000000e-01   1.0696619018928909e-10
  1.3500000000000001e-01   1.0730413817519002e-10
  1.4000000000000001e-01   1.0763894446563468e-10
  1.4499999999999999e-01   1.0796843716239694e-10
  1.4999999999999999e-01   1.0829175329396667e-10
  1.5500000000000000e-01   1.0860936215223095e-10
  1.6000000000000000e-01   1.0892290446906647e-10
  1.6500000000000001e-01   1.0923488267473692e-10
  1.7000000000000001e-01   1.0954825521115264e-10
  1.7500000000000002e-01   1.0986599710438575e-10
  1.7999999999999999e-01   1.1019068909463523e-10
  1.8500000000000000e-01   1.1052418922818043e-10
  1.9000000000000000e-01   1.1086742569168621e-10
  1.9500000000000001e-01   1.1122033035975014e-10
  2.0000000000000001e-01   1.1158191196233926e-10
  2.0500000000000002e-01   1.1195044884914922e-10
  2.0999999999999999e-01   1.1232376649109709e-10
  2.1500000000000000e-01   1.1269955583871285e-10
  2.2000000000000000e-01   1.1307568626065648e-10
  2.2500000000000001e-01   1.1345047086069245e-10
  2.3000000000000001e-01   1.1382285149618735e-10
  2.3500000000000001e-01   1.1419248410570270e-10
  2.3999999999999999e-01   1.1455971991803812e-10
  2.4500000000000000e-01   1.1492549260217600e-10
  2.5000000000000000e-01   1.1529113348988944e-10
  2.5500000000000000e-01   1.1565814519176588e-10
  2.6000000000000001e-01   1.1602796739909758e-10
  2.6500000000000001e-01   1.1640176728676417e-10
  2.7000000000000002e-01   1.1678028124357559e-10
  2.7500000000000002e-01   1.1716372574216049e-10
  2.8000000000000003e-01   1.1755178446654072e-10
  2.8500000000000003e-01   1.1794366792591763e-10
  2.8999999999999998e-01   1.1833823219399964e-10
  2.9499999999999998e-01   1.1873413633545102e-10
  2.9999999999999999e-01   1.1913001429649191e-10
  3.0499999999999999e-01   1.1952463682241378e-10
  3.1000000000000000e-01   1.1991704209197966e-10
  3.1500000000000000e-01   1.2030661956030466e-10
  3.2000000000000001e-01   1.2069313899504843e-10
  3.2500000000000001e-01   1.2107672473355750e-10
  3.3000000000000002e-01   1.2145778264666221e-10
  3.3500000000000002e-01   1.2183689319537047e-10
  3.4000000000000002e-01   1.2221468761917778e-10
  3.4500000000000003e-01   1.2259172536443212e-10
  3.5000000000000003e-01   1.2296838938913568e-10
  3.5499999999999998e-01   1.2334481235067443e-10
  3.5999999999999999e-01   1.2372084154511482e-10
  3.6499999999999999e-01   1.2409604462904033e-10
  3.7000000000000000e-01   1.2446975246241924e-10
  3.7500000000000000e-01   1.2484113062789672e-10
  3.8000000000000000e-01   1.2520926789341079e-10
  3.8500000000000001e-01   1.2557326843068134e-10
  3.9000000000000001e-01   1.2593233504730885e-10
  3.9500000000000002e-01   1.2628583283709604e-10
  4.0000000000000002e-01   1.2663332608663533e-10
  4.0500000000000003e-01   1.2697458543594526e-10
  4.1000000000000003e-01   1.2730956655838646e-10
  4.1500000000000004e-01   1.2763836541166741e-10
  4.1999999999999998e-01   1.2796115793685939e-10
  4.2499999999999999e-01   1.2827813363094615e-10
  4.2999999999999999e-01   1.2858943257199436e-10
  4.3500000000000000e-01   1.2889509431442300e-10
  4.4000000000000000e-01   1.2919502484817128e-10
  4.4500000000000001e-01   1.2948898490916808e-10
  4.5000000000000001e-01   1.2977659978425849e-10
  4.5500000000000002e-01   1.3005738781673641e-10
  4.6000000000000002e-01   1.3033080247360853e-10
  4.6500000000000002e-01   1.3059628135905311e-10
  4.7000000000000003e-01   1.3085329508847112e-10
  4.7500000000000003e-01   1.3110138946532266e-10
  4.7999999999999998e-01   1.3134021578468662e-10
  4.8499999999999999e-01   1.3156954607345436e-10
  4.8999999999999999e-01   1.3178927235335386e-10
  4.9500000000000000e-01   1.3199939124886463e-10
  5.0000000000000000e-01   1.3219997715617537e-10
  5.0500000000000000e-01   1.3239114850861075e-10
  5.1000000000000001e-01   1.3257303228041617e-10
  5.1500000000000001e-01   1.3274573173343637e-10
  5.2000000000000002e-01   1.3290930160251922e-10
  5.2500000000000002e-01   1.3306373359401417e-10
  5.3000000000000003e-01   1.3320895345443820e-10
  5.3500000000000003e-01   1.3334482919476370e-10
  5.4000000000000004e-01   1.3347118856129544e-10
  5.4500000000000004e-01   1.3358784271738085e-10
  5.5000000000000004e-01   1.3369461246803749e-10
  5.5500000000000005e-01   1.3379135327232583e-10
  5.6000000000000005e-01   1.3387797571848107e-10
  5.6500000000000006e-01   1.3395445898854808e-10
  5.7000000000000006e-01   1.3402085596619946e-10
  5.7500000000000007e-01   1.3407728987033403e-10
  5.7999999999999996e-01   1.3412394345336384e-10
  5.8499999999999996e-01   1.3416104273470319e-10
  5.8999999999999997e-01   1.3418883783634962e-10
  5.9499999999999997e-01   1.3420758369166457e-10
  5.9999999999999998e-01   1.3421752321108106e-10
  6.0499999999999998e-01   1.3421887496329676e-10
  6.0999999999999999e-01   1.3421182666343876e-10
  6.1499999999999999e-01   1.3419653487259470e-10
  6.2000000000000000e-01   1.3417313043540034e-10
  6.2500000000000000e-01   1.3414172843282942e-10
  6.3000000000000000e-01   1.3410244089870604e-10
  6.3500000000000001e-01   1.3405539029672849e-10
  6.4000000000000001e-01   1.3400072179421421e-10
  6.4500000000000002e-01   1.3393861267294098e-10
  6.5000000000000002e-01   1.3386927772584591e-10
  6.5500000000000003e-01   1.3379297011699442e-10
  6.6000000000000003e-01   1.3370997783690198e-10
  6.6500000000000004e-01   1.3362061647498383e-10
  6.7000000000000004e-01   1.3352521948006069e-10
  6.7500000000000004e-01   1.3342412733746780e-10
  6.8000000000000005e-01   1.3331767713616658e-10
  6.8500000000000005e-01   1.3320619384059510e-10
  6.9000000000000006e-01   1.3308998425609299e-10
  6.9500000000000006e-01   1.3296933424002139e-10
  7.0000000000000007e-01   1.3284450923058731e-10
  7.0499999999999996e-01   1.3271575771033751e-10
  7.0999999999999996e-01   1.3258331685140514e-10
  7.1499999999999997e-01   1.3244741934904655e-10
  7.1999999999999997e-01   1.3230830036216685e-10
  7.2499999999999998e-01   1.3216620354530918e-10
  7.2999999999999998e-01   1.3202138535590818e-10
  7.3499999999999999e-01   1.3187411711668752e-10
  7.3999999999999999e-01   1.3172468465862157e-10
  7.4500000000000000e-01   1.3157338571426146e-10
  7.5000000000000000e-01   1.3142052552765364e-10
  7.5500000000000000e-01   1.3126641135866133e-10
  7.6000000000000001e-01   1.3111134666355859e-10
  7.6500000000000001e-01   1.3095562572389975e-10
  7.7000000000000002e-01   1.3079952938143581e-10
  7.7500000000000002e-01   1.3064332234133044e-10
  7.8000000000000003e-01   1.3048725226159610e-10
  7.8500000000000003e-01   1.3033155059029437e-10
  7.9000000000000004e-01   1.3017643487937864e-10
  7.9500000000000004e-01   1.3002211212505033e-10
  8.0000000000000004e-01   1.2986878257962543e-10
  8.0500000000000005e-01   1.2971664345808479e-10
  8.1000000000000005e-01   1.2956589202067143e-10
  8.1500000000000006e-01   1.2941672763740052e-10
  8.2000000000000006e-01   1.2926935260942239e-10
  8.2500000000000007e-01   1.2912397170959788e-10
  8.3000000000000007e-01   1.2898079058357226e-10
  8.3499999999999996e-01   1.2884001329933150e-10
  8.3999999999999997e-01   1.2870183943005762e-10
  8.4499999999999997e-01   1.2856646109249174e-10
  8.4999999999999998e-01   1.2843406034016999e-10
  8.5499999999999998e-01   1.2830480723528160e-10
  8.5999999999999999e-01   1.2817885880861355e-10
  8.6499999999999999e-01   1.2805635898244140e-10
  8.7000000000000000e-01   1.2793743939609016e-10
  8.7500000000000000e-01   1.2782222095665417e-10
  8.8000000000000000e-01   1.2771081585269084e-10
  8.8500000000000001e-01   1.2760332972577037e-10
  8.9000000000000001e-01   1.2749986369639380e-10
  8.9500000000000002e-01   1.2740051598355018e-10
  9.0000000000000002e-01   1.2730538293228196e-10
  9.0500000000000003e-01   1.2721455935850915e-10
  9.1000000000000003e-01   1.2712813822068931e-10
  9.1500000000000004e-01   1.2704620971961665e-10
  9.2000000000000004e-01   1.2696885999892877e-10
  9.2500000000000004e-01   1.2689616966147674e-10
  9.3000000000000005e-01   1.2682821232690024e-10
  9.3500000000000005e-01   1.2676505343449127e-10
  9.4000000000000006e-01   1.2670674944789382e-10
  9.4500000000000006e-01   1.2665334755274426e-10
  9.5000000000000007e-01   1.2660488586520572e-10
  9.5500000000000007e-01   1.2656139409900775e-10
  9.5999999999999996e-01   1.2652289458043899e-10
  9.6499999999999997e-01   1.2648940346179210e-10
  9.6999999999999997e-01   1.2646093196794297e-10
  9.7499999999999998e-01   1.2643748751854010e-10
  9.7999999999999998e-01   1.2641907459692037e-10
  9.8499999999999999e-01   1.2640569528095242e-10
  9.8999999999999999e-01   1.2639734940342130e-10
  9.9500000000000000e-01   1.2639403436257713e-10
  1.0000000000000000e+00   1.2639574464981592e-10
  1.0050000000000001e+00   1.2640247119532080e-10
  1.0100000000000000e+00   1.2641420065015846e-10
  1.0150000000000001e+00   1.2643091472356590e-10
  1.0200000000000000e+00   1.2645258967820218e-10
  1.0249999999999999e+00   1.2647919605732464e-10
  1.0300000000000000e+00   1.2651069868102549e-10
  1.0349999999999999e+00   1.2654705690942558e-10
  1.0400000000000000e+00   1.2658822513458433e-10
  1.0449999999999999e+00   1.2663415343453756e-10
  1.0500000000000000e+00   1.2668478830561909e-10
  1.0549999999999999e+00   1.2674007338460138e-10
  1.0600000000000001e+00   1.2679995007992346e-10
  1.0649999999999999e+00   1.2686435804941467e-10
  1.0700000000000001e+00   1.2693323548725230e-10
  1.0750000000000000e+00   1.2700651921144147e-10
  1.0800000000000001e+00   1.2708414457076142e-10
  1.0850000000000000e+00   1.2716604521318153e-10
  1.0900000000000001e+00   1.2725215277341279e-10
  1.0950000000000000e+00   1.2734239654392278e-10
  1.1000000000000001e+00   1.2743670319115505e-10
  1.1050000000000000e+00   1.2753499656787302e-10
  1.1100000000000001e+00   1.2763719765556640e-10
  1.1150000000000000e+00   1.2774322465046851e-10
  1.1200000000000001e+00   1.2785299318596022e-10
  1.1250000000000000e+00   1.2796641666583350e-10
  1.1300000000000001e+00   1.2808340666937117e-10
  1.1350000000000000e+00   1.2820387338196079e-10
  1.1400000000000001e+00   1.2832772600453456e-10
  1.1450000000000000e+00   1.2845487310107898e-10
  1.1500000000000001e+00   1.2858522285452024e-10
  1.1550000000000000e+00   1.2871868321558469e-10
  1.1599999999999999e+00   1.2885516194458962e-10
  1.1650000000000000e+00   1.2899456656036267e-10
  1.1699999999999999e+00   1.2913680422176833e-10
  1.1750000000000000e+00   1.2928178157431430e-10
  1.1799999999999999e+00   1.2942940459637717e-10
  1.1850000000000001e+00   1.2957957847680534e-10
  1.1899999999999999e+00   1.2973220754875006e-10
  1.1950000000000001e+00   1.2988719529479106e-10
  1.2000000000000000e+00   1.3004444442729325e-10
  1.2050000000000001e+00   1.3020385703707478e-10
  1.2100000000000000e+00   1.3036533479433784e-10
  1.2150000000000001e+00   1.3052877917953442e-10
  1.2200000000000000e+00   1.3069409171905676e-10
  1.2250000000000001e+00   1.3086117420148348e-10
  1.2300000000000000e+00   1.3102992885420238e-10
  1.2350000000000001e+00   1.3120025846677952e-10
  1.2400000000000000e+00   1.3137206645538019e-10
  1.2450000000000001e+00   1.3154525687069546e-10
  1.2500000000000000e+00   1.3171973435905933e-10
  1.2550000000000001e+00   1.3189540409184366e-10
  1.2600000000000000e+00   1.3207217168118291e-10
  1.2650000000000001e+00   1.3224994310038685e-10
  1.2700000000000000e+00   1.3242862462519147e-10
  1.2750000000000001e+00   1.3260812280776362e-10
  1.2800000000000000e+00   1.3278834448983329e-10
  1.2849999999999999e+00   1.3296919685532810e-10
  1.2900000000000000e+00   1.3315058751727743e-10
  1.2949999999999999e+00   1.3333242462927297e-10
  1.3000000000000000e+00   1.3351461700894690e-10
  1.3049999999999999e+00   1.3369707426002150e-10
  1.3100000000000001e+00   1.3387970688048346e-10
  1.3149999999999999e+00   1.3406242634706223e-10
  1.3200000000000001e+00   1.3424514516997567e-10
  1.3250000000000000e+00   1.3442777691624362e-10
  1.3300000000000001e+00   1.3461023620413437e-10
  1.3350000000000000e+00   1.3479243867492060e-10
  1.3400000000000001e+00   1.3497430095064151e-10
  1.3450000000000000e+00   1.3515574058772185e-10
  1.3500000000000001e+00   1.3533667603604201e-10
  1.3550000000000000e+00   1.3551702661150634e-10
  1.3600000000000001e+00   1.3569671248763646e-10
  1.3650000000000000e+00   1.3587565470862638e-10
  1.3700000000000001e+00   1.3605377522310291e-10
  1.3750000000000000e+00   1.3623099693497658e-10
  1.3800000000000001e+00   1.3640724376561195e-10
  1.3850000000000000e+00   1.3658244072033095e-10
  1.3900000000000001e+00   1.3675651395209080e-10
  1.3950000000000000e+00   1.3692939081598926e-10
  1.4000000000000001e+00   1.3710099990987077e-10
  1.4050000000000000e+00   1.3727127109845168e-10
  1.4099999999999999e+00   1.3744013552072446e-10
  1.4150000000000000e+00   1.3760752558260535e-10
  1.4199999999999999e+00   1.3777337493856744e-10
  1.4250000000000000e+00   1.3793761846713901e-10
  1.4299999999999999e+00   1.3810019224553792e-10
  1.4350000000000001e+00   1.3826103352835742e-10
  1.4399999999999999e+00   1.3842008073421683e-10
  1.4450000000000001e+00   1.3857727344282868e-10
  1.4500000000000000e+00   1.3873255240324082e-10
  1.4550000000000001e+00   1.3888585955233785e-10
  1.4600000000000000e+00   1.3903713804125399e-10
  1.4650000000000001e+00   1.3918633226634170e-10
  1.4700000000000000e+00   1.3933338790085691e-10
  1.4750000000000001e+00   1.3947825192359727e-10
  1.4800000000000000e+00   1.3962087264131035e-10
  1.4850000000000001e+00   1.3976119970265795e-10
  1.4900000000000000e+00   1.3989918410272446e-10
  1.4950000000000001e+00   1.4003477817830825e-10
  1.5000000000000000e+00   1.4016793559536350e-10
  1.5050000000000001e+00   1.4029861133081949e-10
  1.5100000000000000e+00   1.4042676165150194e-10
  1.5150000000000001e+00   1.4055234409296826e-10
  1.5200000000000000e+00   1.4067531744077245e-10
  1.5250000000000001e+00   1.4079564171605578e-10
  1.5300000000000000e+00   1.4091327816653033e-10
  1.5350000000000001e+00   1.4102818926300963e-10
  1.5400000000000000e+00   1.4114033870077396e-10
  1.5449999999999999e+00   1.4124969140435513e-10
  1.5500000000000000e+00   1.4135621353386823e-10
  1.5549999999999999e+00   1.4145987249085065e-10
  1.5600000000000001e+00   1.4156063692169743e-10
  1.5649999999999999e+00   1.4165847671716182e-10
  1.5700000000000001e+00   1.4175336300695789e-10
  1.5750000000000000e+00   1.4184526814916281e-10
  1.5800000000000001e+00   1.4193416571477438e-10
  1.5850000000000000e+00   1.4202003046834899e-10
  1.5900000000000001e+00   1.4210283834604900e-10
  1.5950000000000000e+00   1.4218256643263060e-10
  1.6000000000000001e+00   1.4225919293888454e-10
  1.6050000000000000e+00   1.4233269718082777e-10
  1.6100000000000001e+00   1.4240305956156933e-10
  1.6150000000000000e+00   1.4247026155631062e-10
  1.6200000000000001e+00   1.4253428570044862e-10
  1.6250000000000000e+00   1.4259511558030895e-10
  1.6300000000000001e+00   1.4265273582569035e-10
  1.6350000000000000e+00   1.4270713210320274e-10
  1.6400000000000001e+00   1.4275829110933728e-10
  1.6450000000000000e+00   1.4280620056231640e-10
  1.6500000000000001e+00   1.4285084919200637e-10
  1.6550000000000000e+00   1.4289222672749831e-10
  1.6600000000000001e+00   1.4293032388231655e-10
  1.6650000000000000e+00   1.4296513233755512e-10
  1.6699999999999999e+00   1.4299664472351984e-10
  1.6750000000000000e+00   1.4302485460063765e-10
  1.6799999999999999e+00   1.4304975644046352e-10
  1.6850000000000001e+00   1.4307134560756979e-10
  1.6899999999999999e+00   1.4308961834295758e-10
  1.6950000000000001e+00   1.4310457174940771e-10
  1.7000000000000000e+00   1.4311620377893112e-10
  1.7050000000000001e+00   1.4312451322221735e-10
  1.7100000000000000e+00   1.4312949969975321e-10
  1.7150000000000001e+00   1.4313116365411999e-10
  1.7200000000000000e+00   1.4312950634289225e-10
  1.7250000000000001e+00   1.4312452983156202e-10
  1.7300000000000000e+00   1.4311623698599047e-10
  1.7350000000000001e+00   1.4310463146403079e-10
  1.7400000000000000e+00   1.4308971770614352e-10
  1.7450000000000001e+00   1.4307150092501575e-10
  1.7500000000000000e+00   1.4304998709436878e-10
  1.7550000000000001e+00   1.4302518293727147e-10
  1.7600000000000000e+00   1.4299709591435879e-10
  1.7650000000000001e+00   1.4296573421237002e-10
  1.7700000000000000e+00   1.4293110673338246e-10
  1.7750000000000001e+00   1.4289322308502147e-10
  1.7800000000000000e+00   1.4285209357180384e-10
  1.7850000000000001e+00   1.4280772918763043e-10
  1.7900000000000000e+00   1.4276014160930822e-10
  1.7949999999999999e+00   1.4270934319087077e-10
  1.8000000000000000e+00   1.4265534695839117e-10
  1.8049999999999999e+00   1.4259816660494962e-10
  1.8100000000000001e+00   1.4253781648543504e-10
  1.8149999999999999e+00   1.4247431161091035e-10
  1.8200000000000001e+00   1.4240766764235991e-10
  1.8250000000000000e+00   1.4233790088373350e-10
  1.8300000000000001e+00   1.4226502827430639e-10
  1.8350000000000000e+00   1.4218906738046101e-10
  1.8400000000000001e+00   1.4211003638706374e-10
  1.8450000000000000e+00   1.4202795408864261e-10
  1.8500000000000001e+00   1.4194283988057483e-10
  1.8550000000000000e+00   1.4185471375046321e-10
  1.8600000000000001e+00   1.4176359626982589e-10
  1.8650000000000000e+00   1.4166950858615620e-10
  1.8700000000000001e+00   1.4157247241533430e-10
  1.8750000000000000e+00   1.4147251003430583e-10
  1.8800000000000001e+00   1.4136964427388876e-10
  1.8850000000000000e+00   1.4126389851153888e-10
  1.8900000000000001e+00   1.4115529666389641e-10
  1.8950000000000000e+00   1.4104386317895199e-10
  1.9000000000000001e+00   1.4092962302770693e-10
  1.9050000000000000e+00   1.4081260169525133e-10
  1.9100000000000001e+00   1.4069282517124025e-10
  1.9150000000000000e+00   1.4057031993980187e-10
  1.9199999999999999e+00   1.4044511296895636e-10
  1.9250000000000000e+00   1.4031723169965673e-10
  1.9299999999999999e+00   1.4018670403457490e-10
  1.9350000000000001e+00   1.4005355832675441e-10
  1.9399999999999999e+00   1.3991782336823008e-10
  1.9450000000000001e+00   1.3977952837868454e-10
  1.9500000000000000e+00   1.3963870299417293e-10
  1.9550000000000001e+00   1.3949537725590835e-10
  1.9600000000000000e+00   1.3934958159906684e-10
  1.9650000000000001e+00   1.3920134684154466e-10
  1.9700000000000000e+00   1.3905070417258805e-10
  1.9750000000000001e+00   1.3889768514121476e-10
  1.9800000000000000e+00   1.3874232164435870e-10
  1.9850000000000001e+00   1.3858464591468977e-10
