# ZND solution.
# Columns are: spatial coordinate; specific volume; density;
# flow velocity in lab frame; pressure; reaction progress variable.
 -2.2149999999999999e+01   5.5721746169784858e-01   1.7946314836455186e+00   3.0151164610293830e+00   2.1531359046879963e+01   9.9999999999900002e-01
 -2.2099999999999998e+01   5.5721746169784858e-01   1.7946314836455186e+00   3.0151164610293830e+00   2.1531359046879963e+01   9.9999999999900002e-01
 -2.2049999999999997e+01   5.5721746169784858e-01   1.7946314836455186e+00   3.0151164610293830e+00   2.1531359046879963e+01   9.9999999999900002e-01
 -2.2000000000000000e+01   5.5721746169784858e-01   1.7946314836455186e+00   3.0151164610293830e+00   2.1531359046879963e+01   9.9999999999900002e-01
 -2.1949999999999999e+01   5.5721746169784858e-01   1.7946314836455186e+00   3.0151164610293830e+00   2.1531359046879963e+01   9.9999999999900002e-01
 -2.1899999999999999e+01   5.5721746169784858e-01   1.7946314836455186e+00   3.0151164610293830e+00   2.1531359046879963e+01   9.9999999999900002e-01
 -2.1849999999999998e+01   5.5721746169784858e-01   1.7946314836455186e+00   3.0151164610293830e+00   2.1531359046879963e+01   9.9999999999900002e-01
 -2.1799999999999997e+01   5.5721746169784858e-01   1.7946314836455186e+00   3.0151164610293830e+00   2.1531359046879963e+01   9.9999999999900002e-01
 -2.1750000000000000e+01   5.5721746169784858e-01   1.7946314836455186e+00   3.0151164610293830e+00   2.1531359046879963e+01   9.9999999999900002e-01
 -2.1699999999999999e+01   5.5721746169784858e-01   1.7946314836455186e+00   3.0151164610293830e+00   2.1531359046879963e+01   9.9999999999900002e-01
 -2.1649999999999999e+01   5.5721746169784858e-01   1.7946314836455186e+00   3.0151164610293830e+00   2.1531359046879963e+01   9.9999999999900002e-01
 -2.1599999999999998e+01   5.5721746169784858e-01   1.7946314836455186e+00   3.0151164610293830e+00   2.1531359046879963e+01   9.9999999999900002e-01
 -2.1549999999999997e+01   5.5721746169784858e-01   1.7946314836455186e+00   3.0151164610293830e+00   2.1531359046879963e+01   9.9999999999900002e-01
 -2.1500000000000000e+01   5.5721746162000696e-01   1.7946314838962234e+00   3.0151164615594435e+00   2.1531359050489396e+01   9.9999999999899958e-01
 -2.1449999999999999e+01   5.5721744737191714e-01   1.7946315297850783e+00   3.0151165585814494e+00   2.1531359711158288e+01   9.9999999999893396e-01
 -2.1399999999999999e+01   5.5721743253105815e-01   1.7946315775830686e+00   3.0151166596399022e+00   2.1531360399313257e+01   9.9999999999886391e-01
 -2.1349999999999998e+01   5.5721741725769103e-01   1.7946316267740416e+00   3.0151167636435083e+00   2.1531361107523175e+01   9.9999999999878919e-01
 -2.1299999999999997e+01   5.5721740148841425e-01   1.7946316775621949e+00   3.0151168710239986e+00   2.1531361838727896e+01   9.9999999999870970e-01
 -2.1250000000000000e+01   5.5721738530160458e-01   1.7946317296951007e+00   3.0151169812476684e+00   2.1531362589293181e+01   9.9999999999862499e-01
 -2.1199999999999999e+01   5.5721736847780379e-01   1.7946317838795687e+00   3.0151170958089129e+00   2.1531363369395070e+01   9.9999999999853462e-01
 -2.1149999999999999e+01   5.5721735119969040e-01   1.7946318395272463e+00   3.0151172134637876e+00   2.1531364170562952e+01   9.9999999999843847e-01
 -2.1099999999999998e+01   5.5721733335759693e-01   1.7946318969913400e+00   3.0151173349590703e+00   2.1531364997882001e+01   9.9999999999833600e-01
 -2.1049999999999997e+01   5.5721731491502291e-01   1.7946319563894073e+00   3.0151174605433102e+00   2.1531365853044694e+01   9.9999999999822675e-01
 -2.1000000000000000e+01   5.5721729586991731e-01   1.7946320177280544e+00   3.0151175902304739e+00   2.1531366736146143e+01   9.9999999999811029e-01
 -2.0949999999999999e+01   5.5721727622220718e-01   1.7946320810075169e+00   3.0151177240210574e+00   2.1531367647189729e+01   9.9999999999798628e-01
 -2.0899999999999999e+01   5.5721725586721038e-01   1.7946321465649451e+00   3.0151178626278918e+00   2.1531368591029452e+01   9.9999999999785405e-01
 -2.0849999999999998e+01   5.5721723492090258e-01   1.7946322140268163e+00   3.0151180052612432e+00   2.1531369562287640e+01   9.9999999999771316e-01
 -2.0799999999999997e+01   5.5721721326248586e-01   1.7946322837821853e+00   3.0151181527436823e+00   2.1531370566565567e+01   9.9999999999756295e-01
 -2.0750000000000000e+01   5.5721719095680189e-01   1.7946323556222168e+00   3.0151183046336718e+00   2.1531371600856595e+01   9.9999999999740297e-01
 -2.0699999999999999e+01   5.5721716787545261e-01   1.7946324299604437e+00   3.0151184618055340e+00   2.1531372671114404e+01   9.9999999999723233e-01
 -2.0649999999999999e+01   5.5721714413440215e-01   1.7946325064233801e+00   3.0151186234696148e+00   2.1531373771961860e+01   9.9999999999705069e-01
 -2.0599999999999998e+01   5.5721711952999442e-01   1.7946325856669432e+00   3.0151187910127049e+00   2.1531374912842281e+01   9.9999999999685696e-01
 -2.0549999999999997e+01   5.5721709416213594e-01   1.7946326673693638e+00   3.0151189637544937e+00   2.1531376089123111e+01   9.9999999999665057e-01
 -2.0500000000000000e+01   5.5721706795605264e-01   1.7946327517714684e+00   3.0151191422041532e+00   2.1531377304271540e+01   9.9999999999643063e-01
 -2.0449999999999999e+01   5.5721704096809732e-01   1.7946328386917614e+00   3.0151193259779503e+00   2.1531378555674547e+01   9.9999999999619638e-01
 -2.0399999999999999e+01   5.5721701303725524e-01   1.7946329286488252e+00   3.0151195161723106e+00   2.1531379850798221e+01   9.9999999999594658e-01
 -2.0349999999999998e+01   5.5721698424937594e-01   1.7946330213661645e+00   3.0151197122026443e+00   2.1531381185661804e+01   9.9999999999568046e-01
 -2.0299999999999997e+01   5.5721695450093722e-01   1.7946331171771945e+00   3.0151199147738832e+00   2.1531382565065513e+01   9.9999999999539679e-01
 -2.0250000000000000e+01   5.5721692380905186e-01   1.7946332160268015e+00   3.0151201237694978e+00   2.1531383988215850e+01   9.9999999999509448e-01
 -2.0199999999999999e+01   5.5721689214034986e-01   1.7946333180224612e+00   3.0151203394167205e+00   2.1531385456660143e+01   9.9999999999477251e-01
 -2.0149999999999999e+01   5.5721685943519839e-01   1.7946334233562349e+00   3.0151205621216199e+00   2.1531386973163507e+01   9.9999999999442923e-01
 -2.0099999999999998e+01   5.5721682566004771e-01   1.7946335321361775e+00   3.0151207921126515e+00   2.1531388539281600e+01   9.9999999999406342e-01
 -2.0049999999999997e+01   5.5721679078843855e-01   1.7946336444475079e+00   3.0151210295699893e+00   2.1531390156241319e+01   9.9999999999367351e-01
 -2.0000000000000000e+01   5.5721675481519983e-01   1.7946337603068820e+00   3.0151212745288456e+00   2.1531391824282437e+01   9.9999999999325806e-01
 -1.9949999999999999e+01   5.5721671768075476e-01   1.7946338799061810e+00   3.0151215273949075e+00   2.1531393546167468e+01   9.9999999999281530e-01
 -1.9899999999999999e+01   5.5721667932187247e-01   1.7946340034490547e+00   3.0151217885987434e+00   2.1531395324828360e+01   9.9999999999234357e-01
 -1.9849999999999998e+01   5.5721663970005675e-01   1.7946341310594895e+00   3.0151220584024920e+00   2.1531397162050144e+01   9.9999999999184075e-01
 -1.9799999999999997e+01   5.5721659883787744e-01   1.7946342626647966e+00   3.0151223366524653e+00   2.1531399056786277e+01   9.9999999999130484e-01
 -1.9750000000000000e+01   5.5721655665632874e-01   1.7946343985194328e+00   3.0151226238866511e+00   2.1531401012700176e+01   9.9999999999073386e-01
 -1.9699999999999999e+01   5.5721651312675535e-01   1.7946345387156903e+00   3.0151229203001768e+00   2.1531403031120561e+01   9.9999999999012545e-01
 -1.9649999999999999e+01   5.5721646814371795e-01   1.7946346835931610e+00   3.0151232266110286e+00   2.1531405116936536e+01   9.9999999998947708e-01
 -1.9599999999999998e+01   5.5721642175813058e-01   1.7946348329878679e+00   3.0151235424725091e+00   2.1531407267787273e+01   9.9999999998878619e-01
 -1.9549999999999997e+01   5.5721637384976996e-01   1.7946349872870178e+00   3.0151238687032751e+00   2.1531409489247398e+01   9.9999999998804989e-01
 -1.9500000000000000e+01   5.5721632439352653e-01   1.7946351465714838e+00   3.0151242054743101e+00   2.1531411782481218e+01   9.9999999998726530e-01
 -1.9449999999999999e+01   5.5721627335056190e-01   1.7946353109663566e+00   3.0151245530500828e+00   2.1531414149289624e+01   9.9999999998642886e-01
 -1.9399999999999999e+01   5.5721622063998033e-01   1.7946354807321807e+00   3.0151249119814509e+00   2.1531416593423668e+01   9.9999999998553790e-01
 -1.9349999999999998e+01   5.5721616622509196e-01   1.7946356559871273e+00   3.0151252825182526e+00   2.1531419116584619e+01   9.9999999998458822e-01
 -1.9299999999999997e+01   5.5721611005923466e-01   1.7946358368814845e+00   3.0151256649782328e+00   2.1531421720936152e+01   9.9999999998357614e-01
 -1.9250000000000000e+01   5.5721605210628333e-01   1.7946360235316052e+00   3.0151260596073848e+00   2.1531424408153349e+01   9.9999999998249767e-01
 -1.9199999999999999e+01   5.5721599223127416e-01   1.7946362163721730e+00   3.0151264673247407e+00   2.1531427184494341e+01   9.9999999998134825e-01
 -1.9149999999999999e+01   5.5721593044320916e-01   1.7946364153741992e+00   3.0151268880690014e+00   2.1531430049541711e+01   9.9999999998012357e-01
 -1.9099999999999998e+01   5.5721586667082268e-01   1.7946366207672146e+00   3.0151273223254496e+00   2.1531433006599975e+01   9.9999999997881839e-01
 -1.9049999999999997e+01   5.5721580083239397e-01   1.7946368328144233e+00   3.0151277706505595e+00   2.1531436059458436e+01   9.9999999997742761e-01
 -1.9000000000000000e+01   5.5721573286185733e-01   1.7946370517286092e+00   3.0151282334942042e+00   2.1531439211180494e+01   9.9999999997594535e-01
 -1.8949999999999999e+01   5.5721566268405343e-01   1.7946372777518451e+00   3.0151287113681793e+00   2.1531442465251203e+01   9.9999999997436573e-01
 -1.8899999999999999e+01   5.5721559025400991e-01   1.7946375110289794e+00   3.0151292045787232e+00   2.1531445823755888e+01   9.9999999997268241e-01
 -1.8849999999999998e+01   5.5721551548077686e-01   1.7946377518529428e+00   3.0151297137451567e+00   2.1531449290911798e+01   9.9999999997088862e-01
 -1.8799999999999997e+01   5.5721543828395548e-01   1.7946380004826836e+00   3.0151302394149533e+00   2.1531452870446945e+01   9.9999999996897693e-01
 -1.8750000000000000e+01   5.5721535858612881e-01   1.7946382571675470e+00   3.0151307821152820e+00   2.1531456565951064e+01   9.9999999996693989e-01
 -1.8699999999999999e+01   5.5721527633938184e-01   1.7946385220618615e+00   3.0151313421724191e+00   2.1531460379645928e+01   9.9999999996476907e-01
 -1.8649999999999999e+01   5.5721519141976339e-01   1.7946387955648473e+00   3.0151319204304063e+00   2.1531464317279024e+01   9.9999999996245548e-01
 -1.8599999999999998e+01   5.5721510375654670e-01   1.7946390779043040e+00   3.0151325173708563e+00   2.1531468382129873e+01   9.9999999995999023e-01
 -1.8549999999999997e+01   5.5721501325949185e-01   1.7946393693708782e+00   3.0151331336082552e+00   2.1531472578382807e+01   9.9999999995736288e-01
 -1.8500000000000000e+01   5.5721491984565785e-01   1.7946396702317098e+00   3.0151337697073881e+00   2.1531476909883715e+01   9.9999999995456323e-01
 -1.8449999999999999e+01   5.5721482340553841e-01   1.7946399808394986e+00   3.0151344264139346e+00   2.1531481381710282e+01   9.9999999995157940e-01
 -1.8399999999999999e+01   5.5721472385676096e-01   1.7946403014595547e+00   3.0151351042888090e+00   2.1531485997682040e+01   9.9999999994839994e-01
 -1.8349999999999998e+01   5.5721462108837427e-01   1.7946406324492334e+00   3.0151358040875311e+00   2.1531490762943683e+01   9.9999999994501154e-01
 -1.8299999999999997e+01   5.5721451498642560e-01   1.7946409741755582e+00   3.0151365265860588e+00   2.1531495682779077e+01   9.9999999994140065e-01
 -1.8250000000000000e+01   5.5721440547980128e-01   1.7946413268675794e+00   3.0151372722686389e+00   2.1531500760485688e+01   9.9999999993755262e-01
 -1.8199999999999999e+01   5.5721429241529985e-01   1.7946416910187322e+00   3.0151380421784926e+00   2.1531506003167305e+01   9.9999999993345190e-01
 -1.8149999999999999e+01   5.5721417570517806e-01   1.7946420669116283e+00   3.0151388369131062e+00   2.1531511414892492e+01   9.9999999992908195e-01
 -1.8099999999999998e+01   5.5721405521984024e-01   1.7946424549636770e+00   3.0151396573549571e+00   2.1531517001670462e+01   9.9999999992442479e-01
 -1.8049999999999997e+01   5.5721393085158955e-01   1.7946428555217580e+00   3.0151405042374053e+00   2.1531522768495005e+01   9.9999999991946220e-01
 -1.8000000000000000e+01   5.5721380245358898e-01   1.7946432690588119e+00   3.0151413785603323e+00   2.1531528722174798e+01   9.9999999991417365e-01
 -1.7949999999999999e+01   5.5721366990804033e-01   1.7946436959542555e+00   3.0151422811258834e+00   2.1531534868172017e+01   9.9999999990853783e-01
 -1.7899999999999999e+01   5.5721353308753230e-01   1.7946441366184671e+00   3.0151432128016613e+00   2.1531541212394593e+01   9.9999999990253174e-01
 -1.7849999999999998e+01   5.5721339185382279e-01   1.7946445914967100e+00   3.0151441745290231e+00   2.1531547761252664e+01   9.9999999989613142e-01
 -1.7799999999999997e+01   5.5721324602742128e-01   1.7946450611671003e+00   3.0151451675302048e+00   2.1531554523069016e+01   9.9999999988931054e-01
 -1.7750000000000000e+01   5.5721309551002318e-01   1.7946455459462760e+00   3.0151461924746084e+00   2.1531561502401928e+01   9.9999999988204191e-01
 -1.7699999999999999e+01   5.5721294012073086e-01   1.7946460464168883e+00   3.0151472505940520e+00   2.1531568707639437e+01   9.9999999987429578e-01
 -1.7649999999999999e+01   5.5721277972423311e-01   1.7946465630147681e+00   3.0151483428099342e+00   2.1531576145055777e+01   9.9999999986604138e-01
 -1.7599999999999998e+01   5.5721261412437095e-01   1.7946470963717236e+00   3.0151494704579944e+00   2.1531583823746633e+01   9.9999999985724453e-01
 -1.7549999999999997e+01   5.5721244317906271e-01   1.7946476469453958e+00   3.0151506345057340e+00   2.1531591750300183e+01   9.9999999984786991e-01
 -1.7500000000000000e+01   5.5721226670808266e-01   1.7946482153162808e+00   3.0151518361803955e+00   2.1531599933073302e+01   9.9999999983787979e-01
 -1.7449999999999999e+01   5.5721208454773608e-01   1.7946488020116342e+00   3.0151530765966541e+00   2.1531608379656348e+01   9.9999999982723398e-01
 -1.7399999999999999e+01   5.5721189650405545e-01   1.7946494076562163e+00   3.0151543570753265e+00   2.1531617099043380e+01   9.9999999981588894e-01
 -1.7349999999999998e+01   5.5721170237573481e-01   1.7946500328984252e+00   3.0151556789872007e+00   2.1531626100568751e+01   9.9999999980379894e-01
 -1.7299999999999997e+01   5.5721150197593428e-01   1.7946506783400706e+00   3.0151570436045585e+00   2.1531635392896028e+01   9.9999999979091525e-01
 -1.7250000000000000e+01   5.5721129509799849e-01   1.7946513446467858e+00   3.0151584523346133e+00   2.1531644985607599e+01   9.9999999977718523e-01
 -1.7199999999999999e+01   5.5721108154303645e-01   1.7946520324592010e+00   3.0151599065317094e+00   2.1531654887925828e+01   9.9999999976255360e-01
 -1.7149999999999999e+01   5.5721086107414231e-01   1.7946527425403869e+00   3.0151614078090510e+00   2.1531665110835796e+01   9.9999999974696097e-01
 -1.7099999999999998e+01   5.5721063348820121e-01   1.7946534755445847e+00   3.0151629575497427e+00   2.1531675663755721e+01   9.9999999973034448e-01
 -1.7049999999999997e+01   5.5721039855541332e-01   1.7946542322119861e+00   3.0151645573186014e+00   2.1531686557341178e+01   9.9999999971263709e-01
 -1.7000000000000000e+01   5.5721015602758550e-01   1.7946550133420280e+00   3.0151662088056921e+00   2.1531697803100624e+01   9.9999999969376674e-01
 -1.6949999999999999e+01   5.5720990566470152e-01   1.7946558197078164e+00   3.0151679136453988e+00   2.1531709412163355e+01   9.9999999967365749e-01
 -1.6899999999999999e+01   5.5720964720673982e-01   1.7946566521468947e+00   3.0151696736083320e+00   2.1531721396586295e+01   9.9999999965222730e-01
 -1.6849999999999998e+01   5.5720938039926404e-01   1.7946575114788228e+00   3.0151714904270692e+00   2.1531733768167395e+01   9.9999999962938990e-01
 -1.6799999999999997e+01   5.5720910496951614e-01   1.7946583985821769e+00   3.0151733659589497e+00   2.1531746539554153e+01   9.9999999960505292e-01
 -1.6750000000000000e+01   5.5720882064304211e-01   1.7946593143410015e+00   3.0151753020728611e+00   2.1531759723472714e+01   9.9999999957911778e-01
 -1.6699999999999999e+01   5.5720852712444935e-01   1.7946602597067860e+00   3.0151773007802718e+00   2.1531773333620119e+01   9.9999999955147933e-01
 -1.6649999999999999e+01   5.5720822412817095e-01   1.7946612355993807e+00   3.0151793640257427e+00   2.1531787383237805e+01   9.9999999952202623e-01
 -1.6599999999999998e+01   5.5720791133312042e-01   1.7946622430530448e+00   3.0151814939957036e+00   2.1531801887214215e+01   9.9999999949063856e-01
 -1.6549999999999997e+01   5.5720758843936569e-01   1.7946632830339104e+00   3.0151836927325344e+00   2.1531816859456882e+01   9.9999999945719009e-01
 -1.6500000000000000e+01   5.5720725510631908e-01   1.7946643566390623e+00   3.0151859625554587e+00   2.1531832315758500e+01   9.9999999942154483e-01
 -1.6449999999999999e+01   5.5720691100422681e-01   1.7946654649307001e+00   3.0151883057099256e+00   2.1531848271409398e+01   9.9999999938355888e-01
 -1.6399999999999999e+01   5.5720655578376321e-01   1.7946666090340706e+00   3.0151907245746608e+00   2.1531864742607443e+01   9.9999999934307848e-01
 -1.6349999999999998e+01   5.5720618908217212e-01   1.7946677901176873e+00   3.0151932216198416e+00   2.1531881746173251e+01   9.9999999929993977e-01
 -1.6299999999999997e+01   5.5720581053860574e-01   1.7946690093439279e+00   3.0151957993026532e+00   2.1531899298838962e+01   9.9999999925396843e-01
 -1.6250000000000000e+01   5.5720541975441817e-01   1.7946702679969238e+00   3.0151984603376643e+00   2.1531917419089357e+01   9.9999999920497773e-01
 -1.6199999999999999e+01   5.5720501634925290e-01   1.7946715673019098e+00   3.0152012073149028e+00   2.1531936124561170e+01   9.9999999915277027e-01
 -1.6149999999999999e+01   5.5720459990620330e-01   1.7946729086018571e+00   3.0152040430732834e+00   2.1531955434585921e+01   9.9999999909713444e-01
 -1.6099999999999998e+01   5.5720417000743228e-01   1.7946742932427471e+00   3.0152069704580584e+00   2.1531975368538273e+01   9.9999999903784464e-01
 -1.6049999999999997e+01   5.5720372621633263e-01   1.7946757226310313e+00   3.0152099924422919e+00   2.1531995946663248e+01   9.9999999897466141e-01
 -1.6000000000000000e+01   5.5720326808789711e-01   1.7946771982002321e+00   3.0152131120562511e+00   2.1532017189595354e+01   9.9999999890732949e-01
 -1.5949999999999999e+01   5.5720279515243720e-01   1.7946787214633844e+00   3.0152163324982668e+00   2.1532039119113556e+01   9.9999999883557533e-01
 -1.5899999999999999e+01   5.5720230693575457e-01   1.7946802939480651e+00   3.0152196569973810e+00   2.1532061757205931e+01   9.9999999875910939e-01
 -1.5849999999999998e+01   5.5720180294282584e-01   1.7946819172489459e+00   3.0152230889244427e+00   2.1532085126826185e+01   9.9999999867762202e-01
 -1.5799999999999999e+01   5.5720128266652580e-01   1.7946835929996965e+00   3.0152266317327081e+00   2.1532109251489189e+01   9.9999999859078315e-01
 -1.5750000000000000e+01   5.5720074557505872e-01   1.7946853229134692e+00   3.0152302890434268e+00   2.1532134155853743e+01   9.9999999849824150e-01
 -1.5699999999999999e+01   5.5720019112833818e-01   1.7946871087301424e+00   3.0152340645343041e+00   2.1532159864963084e+01   9.9999999839962250e-01
 -1.5649999999999999e+01   5.5719961876540047e-01   1.7946889522568628e+00   3.0152379620252074e+00   2.1532186404828508e+01   9.9999999829452746e-01
 -1.5599999999999998e+01   5.5719902790906206e-01   1.7946908553530454e+00   3.0152419854464534e+00   2.1532213802213409e+01   9.9999999818253071e-01
