# First column is time, second column is the perturbation of detonation velocity.
  0.0000000000000000e+00   1.0000000000000000e-10
  1.0000000000000000e-02   1.0042395578116969e-10
  2.0000000000000000e-02   1.0085533898477745e-10
  2.9999999999999999e-02   1.0130062244997425e-10
  4.0000000000000001e-02   1.0176115626499801e-10
  5.0000000000000003e-02   1.0223723304628219e-10
  5.9999999999999998e-02   1.0272915822611870e-10
  7.0000000000000007e-02   1.0323745398975753e-10
  8.0000000000000002e-02   1.0376290727137596e-10
  8.9999999999999997e-02   1.0430631947535729e-10
  1.0000000000000001e-01   1.0486860442870665e-10
  1.1000000000000000e-01   1.0545068556528570e-10
  1.2000000000000000e-01   1.0605356440847578e-10
  1.3000000000000000e-01   1.0667830102153466e-10
  1.4000000000000001e-01   1.0732602713195097e-10
  1.4999999999999999e-01   1.0799795968559341e-10
  1.6000000000000000e-01   1.0869539564700842e-10
  1.7000000000000001e-01   1.0941973224204521e-10
  1.7999999999999999e-01   1.1017246545670686e-10
  1.9000000000000000e-01   1.1095520672255662e-10
  2.0000000000000001e-01   1.1176968984460842e-10
  2.0999999999999999e-01   1.1261778466463123e-10
  2.2000000000000000e-01   1.1350151059063069e-10
  2.3000000000000001e-01   1.1442305099781751e-10
  2.3999999999999999e-01   1.1538477132728958e-10
  2.5000000000000000e-01   1.1638923730371291e-10
  2.6000000000000001e-01   1.1743923731585520e-10
  2.7000000000000002e-01   1.1853780638328590e-10
  2.8000000000000003e-01   1.1968825406535269e-10
  2.8999999999999998e-01   1.2089419576006921e-10
  2.9999999999999999e-01   1.2215958831829188e-10
  3.1000000000000000e-01   1.2348877068618414e-10
  3.2000000000000001e-01   1.2488651006617844e-10
  3.3000000000000002e-01   1.2635805479414635e-10
  3.4000000000000002e-01   1.2790919465441439e-10
  3.5000000000000003e-01   1.2954632999805548e-10
  3.5999999999999999e-01   1.3127655084228537e-10
  3.7000000000000000e-01   1.3310772747670729e-10
  3.8000000000000000e-01   1.3504861416398021e-10
  3.9000000000000001e-01   1.3710896762021494e-10
  4.0000000000000002e-01   1.3929968200249711e-10
  4.1000000000000003e-01   1.4163294191421937e-10
  4.1999999999999998e-01   1.4412239452001633e-10
  4.2999999999999999e-01   1.4678334084859694e-10
  4.4000000000000000e-01   1.4963294455961961e-10
  4.5000000000000001e-01   1.5269045322687451e-10
  4.6000000000000002e-01   1.5597742174663960e-10
  4.7000000000000003e-01   1.5951791847365635e-10
  4.7999999999999998e-01   1.6333868007830243e-10
  4.8999999999999999e-01   1.6746915786281221e-10
  5.0000000000000000e-01   1.7194136193848976e-10
  5.1000000000000001e-01   1.7678935428476191e-10
  5.2000000000000002e-01   1.8204816015715494e-10
  5.3000000000000003e-01   1.8775175355187867e-10
  5.4000000000000004e-01   1.9392962800887693e-10
  5.5000000000000004e-01   2.0060131346235280e-10
  5.6000000000000005e-01   2.0776812149770164e-10
  5.7000000000000006e-01   2.1540157768532849e-10
  5.7999999999999996e-01   2.2342876982465585e-10
  5.8999999999999997e-01   2.3171667607942567e-10
  5.9999999999999998e-01   2.4006074496646367e-10
  6.0999999999999999e-01   2.4818692478266486e-10
  6.2000000000000000e-01   2.5577826973735115e-10
  6.3000000000000000e-01   2.6253254031514373e-10
  6.4000000000000001e-01   2.6824304943412325e-10
  6.5000000000000002e-01   2.7287677262524439e-10
  6.6000000000000003e-01   2.7661559347946506e-10
  6.7000000000000004e-01   2.7983925926616967e-10
  6.8000000000000005e-01   2.8305579266025004e-10
  6.9000000000000006e-01   2.8680741715519456e-10
  7.0000000000000007e-01   2.9158413011844428e-10
  7.0999999999999996e-01   2.9776556855417769e-10
  7.1999999999999997e-01   3.0559617557962885e-10
  7.2999999999999998e-01   3.1518766179202294e-10
  7.3999999999999999e-01   3.2653854898204387e-10
  7.5000000000000000e-01   3.3956122128446050e-10
  7.6000000000000001e-01   3.5410963419880228e-10
  7.7000000000000002e-01   3.7000374926982552e-10
  7.8000000000000003e-01   3.8704902620425743e-10
  7.9000000000000004e-01   4.0505075158980261e-10
  8.0000000000000004e-01   4.2382375538991631e-10
  8.1000000000000005e-01   4.4319837875925969e-10
  8.2000000000000006e-01   4.6302359843592200e-10
  8.3000000000000007e-01   4.8316811840381563e-10
  8.3999999999999997e-01   5.0352009247783578e-10
  8.4999999999999998e-01   5.2398598848586108e-10
  8.5999999999999999e-01   5.4448896819663150e-10
  8.7000000000000000e-01   5.6496704525975015e-10
  8.8000000000000000e-01   5.8537119680579025e-10
  8.9000000000000001e-01   6.0566354010944096e-10
  9.0000000000000002e-01   6.2581563973258536e-10
  9.1000000000000003e-01   6.4580697869117647e-10
  9.2000000000000004e-01   6.6562360580182159e-10
  9.3000000000000005e-01   6.8525695755061426e-10
  9.4000000000000006e-01   7.0470284440375592e-10
  9.5000000000000007e-01   7.2396058688492693e-10
  9.5999999999999996e-01   7.4303228486571872e-10
  9.6999999999999997e-01   7.6192220349977819e-10
  9.7999999999999998e-01   7.8063626035139697e-10
  9.8999999999999999e-01   7.9918159989679466e-10
  1.0000000000000000e+00   8.1756624324081010e-10
  1.0100000000000000e+00   8.3579880233903886e-10
  1.0200000000000000e+00   8.5388824919810485e-10
  1.0300000000000000e+00   8.7184373152136788e-10
  1.0400000000000000e+00   8.8967442717720995e-10
  1.0500000000000000e+00   9.0738943076013075e-10
  1.0600000000000001e+00   9.2499766640663950e-10
  1.0700000000000001e+00   9.4250782189797118e-10
  1.0800000000000001e+00   9.5992829989651111e-10
  1.0900000000000001e+00   9.7726718289334060e-10
  1.1000000000000001e+00   9.9453220907441943e-10
  1.1100000000000001e+00   1.0117307568394900e-09
  1.1200000000000001e+00   1.0288698361373193e-09
  1.1300000000000001e+00   1.0459560851257987e-09
  1.1400000000000001e+00   1.0629957709400299e-09
  1.1500000000000001e+00   1.0799947935695573e-09
  1.1599999999999999e+00   1.0969586920195640e-09
  1.1699999999999999e+00   1.1138926520702232e-09
  1.1799999999999999e+00   1.1308015150610051e-09
  1.1899999999999999e+00   1.1476897872188011e-09
  1.2000000000000000e+00   1.1645616491243268e-09
  1.2100000000000000e+00   1.1814209649738875e-09
  1.2200000000000000e+00   1.1982712913453888e-09
  1.2300000000000000e+00   1.2151158852203698e-09
  1.2400000000000000e+00   1.2319577110490843e-09
  1.2500000000000000e+00   1.2487994466742938e-09
  1.2600000000000000e+00   1.2656434879522458e-09
  1.2700000000000000e+00   1.2824919519270841e-09
  1.2800000000000000e+00   1.2993466784281384e-09
  1.2900000000000000e+00   1.3162092299687380e-09
  1.3000000000000000e+00   1.3330808898305942e-09
  1.3100000000000001e+00   1.3499626582197864e-09
  1.3200000000000001e+00   1.3668552463785401e-09
  1.3300000000000001e+00   1.3837590685313751e-09
  1.3400000000000001e+00   1.4006742315336970e-09
  1.3500000000000001e+00   1.4176005220750293e-09
  1.3600000000000001e+00   1.4345373912656426e-09
  1.3700000000000001e+00   1.4514839364028120e-09
  1.3800000000000001e+00   1.4684388796675844e-09
  1.3900000000000001e+00   1.4854005434412361e-09
  1.4000000000000001e+00   1.5023668218473077e-09
  1.4099999999999999e+00   1.5193351480144590e-09
  1.4199999999999999e+00   1.5363024564112967e-09
  1.4299999999999999e+00   1.5532651394215431e-09
  1.4399999999999999e+00   1.5702189971027882e-09
  1.4500000000000000e+00   1.5871591788071210e-09
  1.4600000000000000e+00   1.6040801150463100e-09
  1.4700000000000000e+00   1.6209754376807937e-09
  1.4800000000000000e+00   1.6378378862404903e-09
  1.4900000000000000e+00   1.6546591980072360e-09
  1.5000000000000000e+00   1.6714299794891814e-09
  1.5100000000000000e+00   1.6881395572050668e-09
  1.5200000000000000e+00   1.7047758063972040e-09
  1.5300000000000000e+00   1.7213249575413090e-09
  1.5400000000000000e+00   1.7377713824511674e-09
  1.5500000000000000e+00   1.7540973645080309e-09
  1.5600000000000001e+00   1.7702828611906026e-09
  1.5700000000000001e+00   1.7863052717599471e-09
  1.5800000000000001e+00   1.8021392288166458e-09
  1.5900000000000001e+00   1.8177564397073605e-09
  1.6000000000000001e+00   1.8331256126857607e-09
  1.6100000000000001e+00   1.8482125135873332e-09
  1.6200000000000001e+00   1.8629802116239260e-09
  1.6300000000000001e+00   1.8773895872824547e-09
  1.6400000000000001e+00   1.8914001897488896e-09
  1.6500000000000001e+00   1.9049715426791463e-09
  1.6600000000000001e+00   1.9180650001966992e-09
  1.6699999999999999e+00   1.9306462419105332e-09
  1.6799999999999999e+00   1.9426884567350935e-09
  1.6899999999999999e+00   1.9541761905918289e-09
  1.7000000000000000e+00   1.9651097170328507e-09
  1.7100000000000000e+00   1.9755096370760720e-09
  1.7200000000000000e+00   1.9854212465600076e-09
  1.7300000000000000e+00   1.9949180676356861e-09
  1.7400000000000000e+00   2.0041038817486607e-09
  1.7500000000000000e+00   2.0131126780442789e-09
  1.7600000000000000e+00   2.0221061682082137e-09
  1.7700000000000000e+00   2.0312688892830842e-09
  1.7800000000000000e+00   2.0408013371645299e-09
  1.7900000000000000e+00   2.0509119303877868e-09
  1.8000000000000000e+00   2.0618087935860630e-09
  1.8100000000000001e+00   2.0736923241298081e-09
  1.8200000000000001e+00   2.0867492873733591e-09
  1.8300000000000001e+00   2.1011488554223327e-09
  1.8400000000000001e+00   2.1170406601157474e-09
  1.8500000000000001e+00   2.1345546530572331e-09
  1.8600000000000001e+00   2.1538023946857121e-09
  1.8700000000000001e+00   2.1748793318098455e-09
  1.8800000000000001e+00   2.1978676441879342e-09
  1.8900000000000001e+00   2.2228393118622426e-09
  1.9000000000000001e+00   2.2498591454485004e-09
  1.9100000000000001e+00   2.2789876098416120e-09
  1.9199999999999999e+00   2.3102833459230992e-09
  1.9299999999999999e+00   2.3438053505625483e-09
  1.9399999999999999e+00   2.3796148130261587e-09
  1.9500000000000000e+00   2.4177766287560610e-09
  1.9600000000000000e+00   2.4583606230007491e-09
  1.9700000000000000e+00   2.5014425203732256e-09
  1.9800000000000000e+00   2.5471046948728507e-09
  1.9900000000000000e+00   2.5954367302891997e-09
  2.0000000000000000e+00   2.6465358146230053e-09
  2.0100000000000002e+00   2.7005069851070689e-09
  2.0200000000000000e+00   2.7574632331091761e-09
  2.0300000000000002e+00   2.8175254709182575e-09
  2.0400000000000000e+00   2.8808223552649239e-09
  2.0499999999999998e+00   2.9474899554388243e-09
  2.0600000000000001e+00   3.0176712470399937e-09
  2.0699999999999998e+00   3.0915154057622504e-09
  2.0800000000000001e+00   3.1691768692355014e-09
  2.0899999999999999e+00   3.2508141290252031e-09
  2.1000000000000001e+00   3.3365882097206161e-09
  2.1099999999999999e+00   3.4266607881369041e-09
  2.1200000000000001e+00   3.5211919037516761e-09
  2.1299999999999999e+00   3.6203372126306053e-09
  2.1400000000000001e+00   3.7242447426618072e-09
  2.1499999999999999e+00   3.8330511197125462e-09
  2.1600000000000001e+00   3.9468772545713577e-09
  2.1699999999999999e+00   4.0658235118682201e-09
  2.1800000000000002e+00   4.1899644274839949e-09
  2.1899999999999999e+00   4.3193431031947368e-09
  2.2000000000000002e+00   4.4539654889349550e-09
  2.2100000000000000e+00   4.5937948654128303e-09
  2.2200000000000002e+00   4.7387469619345435e-09
  2.2300000000000000e+00   4.8886862815963117e-09
  2.2400000000000002e+00   5.0434243485278672e-09
  2.2500000000000000e+00   5.2027207225254042e-09
  2.2600000000000002e+00   5.3662877195449103e-09
  2.2700000000000000e+00   5.5337997975052597e-09
  2.2800000000000002e+00   5.7049084736302458e-09
  2.2900000000000000e+00   5.8792633872356516e-09
  2.3000000000000003e+00   6.0565396711593725e-09
  2.3100000000000001e+00   6.2364711248312333e-09
  2.3199999999999998e+00   6.4188878048564337e-09
  2.3300000000000001e+00   6.6037556265647894e-09
  2.3399999999999999e+00   6.7912145230075837e-09
  2.3500000000000001e+00   6.9816108145902063e-09
  2.3599999999999999e+00   7.1755189193706597e-09
  2.3700000000000001e+00   7.3737475966509369e-09
  2.3799999999999999e+00   7.5773267248959152e-09
  2.3900000000000001e+00   7.7874722155186367e-09
  2.3999999999999999e+00   8.0055289456421001e-09
  2.4100000000000001e+00   8.2328942772423235e-09
  2.4199999999999999e+00   8.4709274066807046e-09
  2.4300000000000002e+00   8.7208519934518447e-09
  2.4399999999999999e+00   8.9836608357158811e-09
  2.4500000000000002e+00   9.2600315278053752e-09
  2.4600000000000000e+00   9.5502610006633657e-09
  2.4700000000000002e+00   9.8542247846887601e-09
  2.4800000000000000e+00   1.0171364100431478e-08
  2.4900000000000002e+00   1.0500700925197217e-08
  2.5000000000000000e+00   1.0840878447314968e-08
  2.5100000000000002e+00   1.1190222158817317e-08
  2.5200000000000000e+00   1.1546815463157486e-08
  2.5300000000000002e+00   1.1908583143294716e-08
  2.5400000000000000e+00   1.2273376268404842e-08
  2.5500000000000003e+00   1.2639052943778597e-08
  2.5600000000000001e+00   1.3003550514063406e-08
  2.5699999999999998e+00   1.3364946201306123e-08
  2.5800000000000001e+00   1.3721504514510078e-08
  2.5899999999999999e+00   1.4071710973632615e-08
  2.6000000000000001e+00   1.4414292667851083e-08
  2.6099999999999999e+00   1.4748226882769145e-08
  2.6200000000000001e+00   1.5072739488349293e-08
  2.6299999999999999e+00   1.5387295008044572e-08
  2.6400000000000001e+00   1.5691580332821864e-08
  2.6499999999999999e+00   1.5985483948973070e-08
  2.6600000000000001e+00   1.6269072361273159e-08
  2.6699999999999999e+00   1.6542565152668912e-08
  2.6800000000000002e+00   1.6806309859973815e-08
  2.6899999999999999e+00   1.7060757585530581e-08
  2.7000000000000002e+00   1.7306440023496189e-08
  2.7100000000000000e+00   1.7543948365946878e-08
  2.7200000000000002e+00   1.7773914373039401e-08
  2.7300000000000000e+00   1.7996993743960267e-08
  2.7400000000000002e+00   1.8213851809820109e-08
  2.7500000000000000e+00   1.8425151482941377e-08
  2.7600000000000002e+00   1.8631543335284709e-08
  2.7700000000000000e+00   1.8833657637959393e-08
  2.7800000000000002e+00   1.9032098169854242e-08
  2.7900000000000000e+00   1.9227437592737643e-08
  2.8000000000000003e+00   1.9420214189472625e-08
  2.8100000000000001e+00   1.9610929768535151e-08
  2.8199999999999998e+00   1.9800048549552118e-08
  2.8300000000000001e+00   1.9987996859275861e-08
  2.8399999999999999e+00   2.0175163483876249e-08
  2.8500000000000001e+00   2.0361900540583288e-08
  2.8599999999999999e+00   2.0548524748770268e-08
  2.8700000000000001e+00   2.0735318996972710e-08
  2.8799999999999999e+00   2.0922534117724429e-08
  2.8900000000000001e+00   2.1110390796234241e-08
  2.8999999999999999e+00   2.1299081551712991e-08
  2.9100000000000001e+00   2.1488772741552505e-08
  2.9199999999999999e+00   2.1679606548591234e-08
  2.9300000000000002e+00   2.1871702920431002e-08
  2.9399999999999999e+00   2.2065161437295457e-08
  2.9500000000000002e+00   2.2260063091345306e-08
  2.9600000000000000e+00   2.2456471965803756e-08
  2.9700000000000002e+00   2.2654436806808778e-08
  2.9800000000000000e+00   2.2853992484710172e-08
  2.9900000000000002e+00   2.3055161344673769e-08
  3.0000000000000000e+00   2.3257954449037934e-08
  3.0100000000000002e+00   2.3462372715983998e-08
  3.0200000000000000e+00   2.3668407960810924e-08
  3.0300000000000002e+00   2.3876043847527239e-08
  3.0400000000000000e+00   2.4085256759656965e-08
  3.0500000000000003e+00   2.4296016600171835e-08
  3.0600000000000001e+00   2.4508287531372414e-08
  3.0700000000000003e+00   2.4722028666411533e-08
  3.0800000000000001e+00   2.4937194725050574e-08
  3.0899999999999999e+00   2.5153736667229574e-08
  3.1000000000000001e+00   2.5371602319196835e-08
  3.1099999999999999e+00   2.5590737008355013e-08
  3.1200000000000001e+00   2.5811084224737070e-08
  3.1299999999999999e+00   2.6032586329217195e-08
  3.1400000000000001e+00   2.6255185331296730e-08
  3.1499999999999999e+00   2.6478823762684111e-08
  3.1600000000000001e+00   2.6703445677015777e-08
  3.1699999999999999e+00   2.6928997811027745e-08
  3.1800000000000002e+00   2.7155430948344502e-08
  3.1899999999999999e+00   2.7382701533813665e-08
  3.2000000000000002e+00   2.7610773593928685e-08
  3.2100000000000000e+00   2.7839621027187880e-08
  3.2200000000000002e+00   2.8069230336952865e-08
  3.2300000000000000e+00   2.8299603888049401e-08
  3.2400000000000002e+00   2.8530763776349229e-08
  3.2500000000000000e+00   2.8762756407022253e-08
  3.2600000000000002e+00   2.8995657880936523e-08
  3.2700000000000000e+00   2.9229580288452537e-08
  3.2800000000000002e+00   2.9464679004006055e-08
  3.2900000000000000e+00   2.9701161061615282e-08
  3.3000000000000003e+00   2.9939294668877754e-08
  3.3100000000000001e+00   3.0179419883254657e-08
  3.3200000000000003e+00   3.0421960427777221e-08
  3.3300000000000001e+00   3.0667436562475854e-08
  3.3399999999999999e+00   3.0916478852297698e-08
  3.3500000000000001e+00   3.1169842582577134e-08
  3.3599999999999999e+00   3.1428422471281354e-08
  3.3700000000000001e+00   3.1693267217166695e-08
  3.3799999999999999e+00   3.1965593310741696e-08
  3.3900000000000001e+00   3.2246797429029337e-08
  3.3999999999999999e+00   3.2538466646357329e-08
  3.4100000000000001e+00   3.2842385634470285e-08
  3.4199999999999999e+00   3.3160540009822446e-08
  3.4300000000000002e+00   3.3495115027213180e-08
  3.4399999999999999e+00   3.3848488927885991e-08
  3.4500000000000002e+00   3.4223220433231391e-08
  3.4600000000000000e+00   3.4622030131995633e-08
  3.4700000000000002e+00   3.5047775830565053e-08
  3.4800000000000000e+00   3.5503422304224283e-08
  3.4900000000000002e+00   3.5992006274989648e-08
  3.5000000000000000e+00   3.6516597814426529e-08
  3.5100000000000002e+00   3.7080259690002884e-08
  3.5200000000000000e+00   3.7686006404557083e-08
  3.5300000000000002e+00   3.8336764790391138e-08
  3.5400000000000000e+00   3.9035337993670858e-08
  3.5500000000000003e+00   3.9784374517198735e-08
  3.5600000000000001e+00   4.0586343692086187e-08
  3.5700000000000003e+00   4.1443518547949361e-08
  3.5800000000000001e+00   4.2357966584631501e-08
  3.5899999999999999e+00   4.3331548459754338e-08
  3.6000000000000001e+00   4.4365924139325873e-08
  3.6099999999999999e+00   4.5462565651518637e-08
  3.6200000000000001e+00   4.6622775265277323e-08
  3.6299999999999999e+00   4.7847707702355427e-08
  3.6400000000000001e+00   4.9138394888035827e-08
  3.6499999999999999e+00   5.0495771745444581e-08
  3.6600000000000001e+00   5.1920701625842575e-08
  3.6699999999999999e+00   5.3414000122156747e-08
  3.6800000000000002e+00   5.4976456212868758e-08
  3.6899999999999999e+00   5.6608849906558647e-08
  3.7000000000000002e+00   5.8311965785158082e-08
  3.7100000000000000e+00   6.0086602061650604e-08
  3.7200000000000002e+00   6.1933574965562377e-08
  3.7300000000000000e+00   6.3853718441603360e-08
  3.7400000000000002e+00   6.5847879291696064e-08
  3.7500000000000000e+00   6.7916908009926401e-08
  3.7600000000000002e+00   7.0061645657521070e-08
  3.7700000000000000e+00   7.2282907206002098e-08
  3.7800000000000002e+00   7.4581461847020456e-08
  3.7900000000000000e+00   7.6958010832811850e-08
  3.8000000000000003e+00   7.9413163477004096e-08
  3.8100000000000001e+00   8.1947412015798261e-08
  3.8200000000000003e+00   8.4561106107288607e-08
  3.8300000000000001e+00   8.7254427833031581e-08
  3.8399999999999999e+00   9.0027368160208739e-08
  3.8500000000000001e+00   9.2879705921823465e-08
  3.8599999999999999e+00   9.5810990470851375e-08
  3.8700000000000001e+00   9.8820529253814634e-08
  3.8799999999999999e+00   1.0190738161862275e-07
  3.8900000000000001e+00   1.0507036020649829e-07
  3.8999999999999999e+00   1.0830804126116704e-07
  3.9100000000000001e+00   1.1161878510073966e-07
  3.9199999999999999e+00   1.1500076781755914e-07
  3.9300000000000002e+00   1.1845202497740457e-07
  3.9399999999999999e+00   1.2197050766203141e-07
  3.9500000000000002e+00   1.2555415062276721e-07
  3.9600000000000000e+00   1.2920095157992820e-07
  3.9700000000000002e+00   1.3290905981671112e-07
