# First column is time, second column is the perturbation of detonation velocity.
  0.0000000000000000e+00   1.0000000000000000e-10
  5.0000000000000001e-03   1.0020542434958717e-10
  1.0000000000000000e-02   1.0044090967953890e-10
  1.4999999999999999e-02   1.0071581738927395e-10
  2.0000000000000000e-02   1.0094059748378793e-10
  2.5000000000000001e-02   1.0114519050304596e-10
  2.9999999999999999e-02   1.0139587238141581e-10
  3.5000000000000003e-02   1.0167286230101270e-10
  4.0000000000000001e-02   1.0192080012761004e-10
  4.4999999999999998e-02   1.0214788504120274e-10
  5.0000000000000003e-02   1.0239979713988258e-10
  5.5000000000000000e-02   1.0267762665790615e-10
  5.9999999999999998e-02   1.0294521765161978e-10
  6.5000000000000002e-02   1.0319584480492982e-10
  7.0000000000000007e-02   1.0345717841485218e-10
  7.4999999999999997e-02   1.0373908341502698e-10
  8.0000000000000002e-02   1.0402121144269078e-10
  8.5000000000000006e-02   1.0429248836974858e-10
  8.9999999999999997e-02   1.0456735719916891e-10
  9.5000000000000001e-02   1.0485699514119348e-10
  1.0000000000000001e-01   1.0515173786950833e-10
  1.0500000000000000e-01   1.0544112932356114e-10
  1.1000000000000000e-01   1.0573114709489876e-10
  1.1500000000000000e-01   1.0603104779847132e-10
  1.2000000000000000e-01   1.0633754435992247e-10
  1.2500000000000000e-01   1.0664271243402811e-10
  1.3000000000000000e-01   1.0694785550030090e-10
  1.3500000000000001e-01   1.0725946065903793e-10
  1.4000000000000001e-01   1.0757751842095368e-10
  1.4499999999999999e-01   1.0789684986306256e-10
  1.4999999999999999e-01   1.0821660882376349e-10
  1.5500000000000000e-01   1.0854076099376929e-10
  1.6000000000000000e-01   1.0887060227511248e-10
  1.6500000000000001e-01   1.0920316499126911e-10
  1.7000000000000001e-01   1.0953690713312815e-10
  1.7500000000000002e-01   1.0987389784187681e-10
  1.7999999999999999e-01   1.1021564475327836e-10
  1.8500000000000000e-01   1.1056067969683086e-10
  1.9000000000000000e-01   1.1090748610764346e-10
  1.9500000000000001e-01   1.1125689312661713e-10
  2.0000000000000001e-01   1.1161013579059742e-10
  2.0500000000000002e-01   1.1196663843380610e-10
  2.0999999999999999e-01   1.1232520020560524e-10
  2.1500000000000000e-01   1.1268595123348018e-10
  2.2000000000000000e-01   1.1304972756687297e-10
  2.2500000000000001e-01   1.1341641511451404e-10
  2.3000000000000001e-01   1.1378517910848749e-10
  2.3500000000000001e-01   1.1415581816997256e-10
  2.3999999999999999e-01   1.1452880030915915e-10
  2.4500000000000000e-01   1.1490419081847438e-10
  2.5000000000000000e-01   1.1528144886583797e-10
  2.5500000000000000e-01   1.1566024583761428e-10
  2.6000000000000001e-01   1.1604075814398202e-10
  2.6500000000000001e-01   1.1642306254599625e-10
  2.7000000000000002e-01   1.1680680453139209e-10
  2.7500000000000002e-01   1.1719162499536796e-10
  2.8000000000000003e-01   1.1757749281964448e-10
  2.8500000000000003e-01   1.1796441951488299e-10
  2.8999999999999998e-01   1.1835214905919077e-10
  2.9499999999999998e-01   1.1874033540138444e-10
  2.9999999999999999e-01   1.1912881871579266e-10
  3.0499999999999999e-01   1.1951752983681014e-10
  3.1000000000000000e-01   1.1990625595222540e-10
  3.1500000000000000e-01   1.2029467942142345e-10
  3.2000000000000001e-01   1.2068257093647344e-10
  3.2500000000000001e-01   1.2106979024038380e-10
  3.3000000000000002e-01   1.2145613277214855e-10
  3.3500000000000002e-01   1.2184130427587734e-10
  3.4000000000000002e-01   1.2222503854725211e-10
  3.4500000000000003e-01   1.2260713654039309e-10
  3.5000000000000003e-01   1.2298737895797615e-10
  3.5499999999999998e-01   1.2336548102187120e-10
  3.5999999999999999e-01   1.2374115485047765e-10
  3.6499999999999999e-01   1.2411415590429155e-10
  3.7000000000000000e-01   1.2448424149441141e-10
  3.7500000000000000e-01   1.2485112794535859e-10
  3.8000000000000000e-01   1.2521451766604313e-10
  3.8500000000000001e-01   1.2557413875740574e-10
  3.9000000000000001e-01   1.2592973115605337e-10
  3.9500000000000002e-01   1.2628101420689452e-10
  4.0000000000000002e-01   1.2662769375350913e-10
  4.0500000000000003e-01   1.2696949035619114e-10
  4.1000000000000003e-01   1.2730613943199068e-10
  4.1500000000000004e-01   1.2763736996127859e-10
  4.1999999999999998e-01   1.2796290196752993e-10
  4.2499999999999999e-01   1.2828246400339120e-10
  4.2999999999999999e-01   1.2859579888551545e-10
  4.3500000000000000e-01   1.2890265158410253e-10
  4.4000000000000000e-01   1.2920276356708305e-10
  4.4500000000000001e-01   1.2949588240586287e-10
  4.5000000000000001e-01   1.2978176876406343e-10
  4.5500000000000002e-01   1.3006019088557846e-10
  4.6000000000000002e-01   1.3033091920588786e-10
  4.6500000000000002e-01   1.3059373098509219e-10
  4.7000000000000003e-01   1.3084841651039816e-10
  4.7500000000000003e-01   1.3109477760590915e-10
  4.7999999999999998e-01   1.3133262364618217e-10
  4.8499999999999999e-01   1.3156177325237086e-10
  4.8999999999999999e-01   1.3178205883434283e-10
  4.9500000000000000e-01   1.3199332699083819e-10
  5.0000000000000000e-01   1.3219543587408067e-10
  5.0500000000000000e-01   1.3238825524377408e-10
  5.1000000000000001e-01   1.3257166925257824e-10
  5.1500000000000001e-01   1.3274557741896776e-10
  5.2000000000000002e-01   1.3290989302638493e-10
  5.2500000000000002e-01   1.3306454245140332e-10
  5.3000000000000003e-01   1.3320946660715477e-10
  5.3500000000000003e-01   1.3334462192243493e-10
  5.4000000000000004e-01   1.3346997950807245e-10
  5.4500000000000004e-01   1.3358552435341150e-10
  5.5000000000000004e-01   1.3369125592918482e-10
  5.5500000000000005e-01   1.3378718895523082e-10
  5.6000000000000005e-01   1.3387335303486625e-10
  5.6500000000000006e-01   1.3394979192725838e-10
  5.7000000000000006e-01   1.3401656360695689e-10
  5.7500000000000007e-01   1.3407374067406508e-10
  5.7999999999999996e-01   1.3412141012183659e-10
  5.8499999999999996e-01   1.3415967264116726e-10
  5.8999999999999997e-01   1.3418864227661722e-10
  5.9499999999999997e-01   1.3420844642200337e-10
  5.9999999999999998e-01   1.3421922550813115e-10
  6.0499999999999998e-01   1.3422113229309848e-10
  6.0999999999999999e-01   1.3421433126409335e-10
  6.1499999999999999e-01   1.3419899831480314e-10
  6.2000000000000000e-01   1.3417532033185313e-10
  6.2500000000000000e-01   1.3414349451213531e-10
  6.3000000000000000e-01   1.3410372768466995e-10
  6.3500000000000001e-01   1.3405623583235112e-10
  6.4000000000000001e-01   1.3400124363491329e-10
  6.4500000000000002e-01   1.3393898385392390e-10
  6.5000000000000002e-01   1.3386969667574683e-10
  6.5500000000000003e-01   1.3379362917466878e-10
  6.6000000000000003e-01   1.3371103482966382e-10
  6.6500000000000004e-01   1.3362217295360479e-10
  6.7000000000000004e-01   1.3352730806330997e-10
  6.7500000000000004e-01   1.3342670930599055e-10
  6.8000000000000005e-01   1.3332064993775511e-10
  6.8500000000000005e-01   1.3320940676226785e-10
  6.9000000000000006e-01   1.3309325952019057e-10
  6.9500000000000006e-01   1.3297249030433824e-10
  7.0000000000000007e-01   1.3284738302458164e-10
  7.0499999999999996e-01   1.3271822287202663e-10
  7.0999999999999996e-01   1.3258529576077446e-10
  7.1499999999999997e-01   1.3244888778938909e-10
  7.1999999999999997e-01   1.3230928475112958e-10
  7.2499999999999998e-01   1.3216677166826585e-10
  7.2999999999999998e-01   1.3202163232639387e-10
  7.3499999999999999e-01   1.3187414882626078e-10
  7.3999999999999999e-01   1.3172460117566739e-10
  7.4500000000000000e-01   1.3157326691065469e-10
  7.5000000000000000e-01   1.3142042072491447e-10
  7.5500000000000000e-01   1.3126633411066037e-10
  7.6000000000000001e-01   1.3111127502604819e-10
  7.6500000000000001e-01   1.3095550758687790e-10
  7.7000000000000002e-01   1.3079929176839231e-10
  7.7500000000000002e-01   1.3064288311535953e-10
  7.8000000000000003e-01   1.3048653247071811e-10
  7.8500000000000003e-01   1.3033048572579548e-10
  7.9000000000000004e-01   1.3017498358487236e-10
  7.9500000000000004e-01   1.3002026134140282e-10
  8.0000000000000004e-01   1.2986654867230387e-10
  8.0500000000000005e-01   1.2971406945462705e-10
  8.1000000000000005e-01   1.2956304160116895e-10
  8.1500000000000006e-01   1.2941367691165710e-10
  8.2000000000000006e-01   1.2926618094186605e-10
  8.2500000000000007e-01   1.2912075289335365e-10
  8.3000000000000007e-01   1.2897758552148224e-10
  8.3499999999999996e-01   1.2883686505783565e-10
  8.3999999999999997e-01   1.2869877114650914e-10
  8.4499999999999997e-01   1.2856347679529079e-10
  8.4999999999999998e-01   1.2843114834023270e-10
  8.5499999999999998e-01   1.2830194542053386e-10
  8.5999999999999999e-01   1.2817602096258286e-10
  8.6499999999999999e-01   1.2805352117386437e-10
  8.7000000000000000e-01   1.2793458554652725e-10
  8.7500000000000000e-01   1.2781934686915023e-10
  8.8000000000000000e-01   1.2770793124607702e-10
  8.8500000000000001e-01   1.2760045812509491e-10
  8.9000000000000001e-01   1.2749704033397768e-10
  8.9500000000000002e-01   1.2739778412533263e-10
  9.0000000000000002e-01   1.2730278922920740e-10
  9.0500000000000003e-01   1.2721214891367252e-10
  9.1000000000000003e-01   1.2712595005353870e-10
  9.1500000000000004e-01   1.2704427320654954e-10
  9.2000000000000004e-01   1.2696719269609012e-10
  9.2500000000000004e-01   1.2689477669985444e-10
  9.3000000000000005e-01   1.2682708734406572e-10
  9.3500000000000005e-01   1.2676418080245140e-10
  9.4000000000000006e-01   1.2670610739896371e-10
  9.4500000000000006e-01   1.2665291171355306e-10
  9.5000000000000007e-01   1.2660463269062573e-10
  9.5500000000000007e-01   1.2656130374976334e-10
  9.5999999999999996e-01   1.2652295289819639e-10
  9.6499999999999997e-01   1.2648960284473952e-10
  9.6999999999999997e-01   1.2646127111517517e-10
  9.7499999999999998e-01   1.2643797016909842e-10
  9.7999999999999998e-01   1.2641970751812475e-10
  9.8499999999999999e-01   1.2640648584538997e-10
  9.8999999999999999e-01   1.2639830312637860e-10
  9.9500000000000000e-01   1.2639515275108402e-10
  1.0000000000000000e+00   1.2639702364735255e-10
  1.0050000000000001e+00   1.2640390040517995e-10
  1.0100000000000000e+00   1.2641576340174193e-10
  1.0150000000000001e+00   1.2643258892692414e-10
  1.0200000000000000e+00   1.2645434930902828e-10
  1.0249999999999999e+00   1.2648101304028853e-10
  1.0300000000000000e+00   1.2651254490188033e-10
  1.0349999999999999e+00   1.2654890608815987e-10
  1.0400000000000000e+00   1.2659005432989603e-10
  1.0449999999999999e+00   1.2663594401627961e-10
  1.0500000000000000e+00   1.2668652631557098e-10
  1.0549999999999999e+00   1.2674174929432646e-10
  1.0600000000000001e+00   1.2680155803518899e-10
  1.0649999999999999e+00   1.2686589475324513e-10
  1.0700000000000001e+00   1.2693469891097427e-10
  1.0750000000000000e+00   1.2700790733184583e-10
  1.0800000000000001e+00   1.2708545431261355e-10
  1.0850000000000000e+00   1.2716727173432666e-10
  1.0900000000000001e+00   1.2725328917204670e-10
  1.0950000000000000e+00   1.2734343400324532e-10
  1.1000000000000001e+00   1.2743763151482815e-10
  1.1050000000000000e+00   1.2753580500869957e-10
  1.1100000000000001e+00   1.2763787590576316e-10
  1.1150000000000000e+00   1.2774376384824528e-10
  1.1200000000000001e+00   1.2785338680023994e-10
  1.1250000000000000e+00   1.2796666114637626e-10
  1.1300000000000001e+00   1.2808350178852652e-10
  1.1350000000000000e+00   1.2820382224050062e-10
  1.1400000000000001e+00   1.2832753472069860e-10
  1.1450000000000000e+00   1.2845455024272308e-10
  1.1500000000000001e+00   1.2858477870397060e-10
  1.1550000000000000e+00   1.2871812897224227e-10
  1.1599999999999999e+00   1.2885450897042528e-10
  1.1650000000000000e+00   1.2899382575930400e-10
  1.1699999999999999e+00   1.2913598561855453e-10
  1.1750000000000000e+00   1.2928089412596762e-10
  1.1799999999999999e+00   1.2942845623493527e-10
  1.1850000000000001e+00   1.2957857635022079e-10
  1.1899999999999999e+00   1.2973115840201597e-10
  1.1950000000000001e+00   1.2988610591827842e-10
  1.2000000000000000e+00   1.3004332209532907e-10
  1.2050000000000001e+00   1.3020270986668578e-10
  1.2100000000000000e+00   1.3036417197010712e-10
  1.2150000000000001e+00   1.3052761101282625e-10
  1.2200000000000000e+00   1.3069292953495734e-10
  1.2250000000000001e+00   1.3086003007107015e-10
  1.2300000000000000e+00   1.3102881520994129e-10
  1.2350000000000001e+00   1.3119918765250103e-10
  1.2400000000000000e+00   1.3137105026800262e-10
  1.2450000000000001e+00   1.3154430614845515e-10
  1.2500000000000000e+00   1.3171885866136234e-10
  1.2550000000000001e+00   1.3189461150081366e-10
  1.2600000000000000e+00   1.3207146873697213e-10
  1.2650000000000001e+00   1.3224933486400007e-10
  1.2700000000000000e+00   1.3242811484645742e-10
  1.2750000000000001e+00   1.3260771416420141e-10
  1.2800000000000000e+00   1.3278803885580655e-10
  1.2849999999999999e+00   1.3296899556051832e-10
  1.2900000000000000e+00   1.3315049155874727e-10
  1.2949999999999999e+00   1.3333243481111037e-10
  1.3000000000000000e+00   1.3351473399601849e-10
  1.3049999999999999e+00   1.3369729854581641e-10
  1.3100000000000001e+00   1.3388003868147930e-10
  1.3149999999999999e+00   1.3406286544587730e-10
  1.3200000000000001e+00   1.3424569073562354e-10
  1.3250000000000000e+00   1.3442842733152719e-10
  1.3300000000000001e+00   1.3461098892767617e-10
  1.3350000000000000e+00   1.3479329015918039e-10
  1.3400000000000001e+00   1.3497524662860905e-10
  1.3450000000000000e+00   1.3515677493115459e-10
  1.3500000000000001e+00   1.3533779267855858e-10
  1.3550000000000000e+00   1.3551821852183010e-10
  1.3600000000000001e+00   1.3569797217278679e-10
  1.3650000000000000e+00   1.3587697442444454e-10
  1.3700000000000001e+00   1.3605514717027670e-10
  1.3750000000000000e+00   1.3623241342236387e-10
  1.3800000000000001e+00   1.3640869732844709e-10
  1.3850000000000000e+00   1.3658392418790077e-10
  1.3900000000000001e+00   1.3675802046663765e-10
  1.3950000000000000e+00   1.3693091381095949e-10
  1.4000000000000001e+00   1.3710253306036586e-10
  1.4050000000000000e+00   1.3727280825934015e-10
  1.4099999999999999e+00   1.3744167066812964e-10
  1.4150000000000000e+00   1.3760905277254197e-10
  1.4199999999999999e+00   1.3777488829277966e-10
  1.4250000000000000e+00   1.3793911219134124e-10
  1.4299999999999999e+00   1.3810166068001388e-10
  1.4350000000000001e+00   1.3826247122598774e-10
  1.4399999999999999e+00   1.3842148255711686e-10
  1.4450000000000001e+00   1.3857863466635752e-10
  1.4500000000000000e+00   1.3873386881540774e-10
  1.4550000000000001e+00   1.3888712753757336e-10
  1.4600000000000000e+00   1.3903835463988331e-10
  1.4650000000000001e+00   1.3918749520447599e-10
  1.4700000000000000e+00   1.3933449558927503e-10
  1.4750000000000001e+00   1.3947930342797522e-10
  1.4800000000000000e+00   1.3962186762935487e-10
  1.4850000000000001e+00   1.3976213837593379e-10
  1.4900000000000000e+00   1.3990006712199538e-10
  1.4950000000000001e+00   1.4003560659099214e-10
  1.5000000000000000e+00   1.4016871077235452e-10
  1.5050000000000001e+00   1.4029933491772475e-10
  1.5100000000000000e+00   1.4042743553663901e-10
  1.5150000000000001e+00   1.4055297039168027e-10
  1.5200000000000000e+00   1.4067589849312586e-10
  1.5250000000000001e+00   1.4079618009311560e-10
  1.5300000000000000e+00   1.4091377667936345e-10
  1.5350000000000001e+00   1.4102865096843671e-10
  1.5400000000000000e+00   1.4114076689862635e-10
  1.5449999999999999e+00   1.4125008962243079e-10
  1.5500000000000000e+00   1.4135658549867336e-10
  1.5549999999999999e+00   1.4146022208427456e-10
  1.5600000000000001e+00   1.4156096812569887e-10
  1.5649999999999999e+00   1.4165879355009318e-10
  1.5700000000000001e+00   1.4175366945613491e-10
  1.5750000000000000e+00   1.4184556810460834e-10
  1.5800000000000001e+00   1.4193446290872493e-10
  1.5850000000000000e+00   1.4202032842420727e-10
  1.5900000000000001e+00   1.4210314033915130e-10
  1.5950000000000000e+00   1.4218287546368561e-10
  1.6000000000000001e+00   1.4225951171944658e-10
  1.6050000000000000e+00   1.4233302812888576e-10
  1.6100000000000001e+00   1.4240340480442805e-10
  1.6150000000000000e+00   1.4247062293749790e-10
  1.6200000000000001e+00   1.4253466478743058e-10
  1.6250000000000000e+00   1.4259551367028497e-10
  1.6300000000000001e+00   1.4265315394757582e-10
  1.6350000000000000e+00   1.4270757101493616e-10
  1.6400000000000001e+00   1.4275875129072815e-10
  1.6450000000000000e+00   1.4280668220461282e-10
  1.6500000000000001e+00   1.4285135218609321e-10
  1.6550000000000000e+00   1.4289275065304036e-10
  1.6600000000000001e+00   1.4293086800021300e-10
  1.6650000000000000e+00   1.4296569558778188e-10
  1.6699999999999999e+00   1.4299722572986891e-10
  1.6750000000000000e+00   1.4302545168310854e-10
  1.6799999999999999e+00   1.4305036763523997e-10
  1.6850000000000001e+00   1.4307196869373955e-10
  1.6899999999999999e+00   1.4309025087450170e-10
  1.6950000000000001e+00   1.4310521109057547e-10
  1.7000000000000000e+00   1.4311684714096232e-10
  1.7050000000000001e+00   1.4312515769948392e-10
  1.7100000000000000e+00   1.4313014230372606e-10
  1.7150000000000001e+00   1.4313180134406213e-10
  1.7200000000000000e+00   1.4313013605276391e-10
  1.7250000000000001e+00   1.4312514849320036e-10
  1.7300000000000000e+00   1.4311684154912997e-10
  1.7350000000000001e+00   1.4310521891408959e-10
  1.7400000000000000e+00   1.4309028508087836e-10
  1.7450000000000001e+00   1.4307204533114166e-10
  1.7500000000000000e+00   1.4305050572505215e-10
  1.7550000000000001e+00   1.4302567309108977e-10
  1.7600000000000000e+00   1.4299755501591991e-10
  1.7650000000000001e+00   1.4296615983436637e-10
  1.7700000000000000e+00   1.4293149661948032e-10
  1.7750000000000001e+00   1.4289357517270160e-10
  1.7800000000000000e+00   1.4285240601410998e-10
  1.7850000000000001e+00   1.4280800037276535e-10
  1.7900000000000000e+00   1.4276037017713150e-10
  1.7949999999999999e+00   1.4270952804558184e-10
  1.8000000000000000e+00   1.4265548727698217e-10
  1.8049999999999999e+00   1.4259826184134838e-10
  1.8100000000000001e+00   1.4253786637057144e-10
  1.8149999999999999e+00   1.4247431614920708e-10
  1.8200000000000001e+00   1.4240762710532484e-10
  1.8250000000000000e+00   1.4233781580140973e-10
  1.8300000000000001e+00   1.4226489942531060e-10
  1.8350000000000000e+00   1.4218889578122958e-10
  1.8400000000000001e+00   1.4210982328074577e-10
  1.8450000000000000e+00   1.4202770093386542e-10
  1.8500000000000001e+00   1.4194254834009324e-10
  1.8550000000000000e+00   1.4185438567951618e-10
  1.8600000000000001e+00   1.4176323370389333e-10
  1.8650000000000000e+00   1.4166911372774431e-10
  1.8700000000000001e+00   1.4157204761942914e-10
  1.8750000000000000e+00   1.4147205779221263e-10
  1.8800000000000001e+00   1.4136916719530488e-10
  1.8850000000000000e+00   1.4126339930487183e-10
  1.8900000000000001e+00   1.4115477811500825e-10
  1.8950000000000000e+00   1.4104332812866696e-10
  1.9000000000000001e+00   1.4092907434853451e-10
  1.9050000000000000e+00   1.4081204226785037e-10
  1.9100000000000001e+00   1.4069225786115888e-10
  1.9150000000000000e+00   1.4056974757498966e-10
  1.9199999999999999e+00   1.4044453831845883e-10
  1.9250000000000000e+00   1.4031665745378404e-10
  1.9299999999999999e+00   1.4018613278670780e-10
  1.9350000000000001e+00   1.4005299255682257e-10
  1.9399999999999999e+00   1.3991726542779133e-10
  1.9450000000000001e+00   1.3977898047745805e-10
  1.9500000000000000e+00   1.3963816718784373e-10
  1.9550000000000001e+00   1.3949485543502053e-10
  1.9600000000000000e+00   1.3934907547886169e-10
  1.9650000000000001e+00   1.3920085795266114e-10
  1.9700000000000000e+00   1.3905023385261988e-10
  1.9750000000000001e+00   1.3889723452719459e-10
  1.9800000000000000e+00   1.3874189166630491e-10
  1.9850000000000001e+00   1.3858423729039733e-10
