# First column is time, second column is the perturbation of detonation velocity.
  0.0000000000000000e+00   1.0000000000000000e-10
  5.0000000000000001e-03   1.0020412647676583e-10
  1.0000000000000000e-02   1.0043798517231773e-10
  1.4999999999999999e-02   1.0071091741977763e-10
  2.0000000000000000e-02   1.0093396287408418e-10
  2.5000000000000001e-02   1.0113687172524807e-10
  2.9999999999999999e-02   1.0138539943740230e-10
  3.5000000000000003e-02   1.0165985222227994e-10
  4.0000000000000001e-02   1.0190534842431221e-10
  4.4999999999999998e-02   1.0213007784472072e-10
  5.0000000000000003e-02   1.0237929173808368e-10
  5.5000000000000000e-02   1.0265397794106802e-10
  5.9999999999999998e-02   1.0291831811354904e-10
  6.5000000000000002e-02   1.0316573657145866e-10
  7.0000000000000007e-02   1.0342362713637726e-10
  7.4999999999999997e-02   1.0370165129607843e-10
  8.0000000000000002e-02   1.0397964266831913e-10
  8.5000000000000006e-02   1.0424672397013422e-10
  8.9999999999999997e-02   1.0451720304809502e-10
  9.5000000000000001e-02   1.0480204343988782e-10
  1.0000000000000001e-01   1.0509163811912066e-10
  1.0500000000000000e-01   1.0537570605491711e-10
  1.1000000000000000e-01   1.0566018904712808e-10
  1.1500000000000000e-01   1.0595416897218754e-10
  1.2000000000000000e-01   1.0625433767496093e-10
  1.2500000000000000e-01   1.0655289402022210e-10
  1.3000000000000000e-01   1.0685115996173882e-10
  1.3500000000000001e-01   1.0715550085087901e-10
  1.4000000000000001e-01   1.0746584846560473e-10
  1.4499999999999999e-01   1.0777709310356514e-10
  1.4999999999999999e-01   1.0808842687694192e-10
  1.5500000000000000e-01   1.0840374106330927e-10
  1.6000000000000000e-01   1.0872426291877570e-10
  1.6500000000000001e-01   1.0904705067381440e-10
  1.7000000000000001e-01   1.0937059955578628e-10
  1.7500000000000002e-01   1.0969693882069392e-10
  1.7999999999999999e-01   1.1002751307570710e-10
  1.8500000000000000e-01   1.1036085107544186e-10
  1.9000000000000000e-01   1.1069546266301224e-10
  1.9500000000000001e-01   1.1103215854599148e-10
  2.0000000000000001e-01   1.1137212305813519e-10
  2.0500000000000002e-01   1.1171476149634944e-10
  2.0999999999999999e-01   1.1205888624181085e-10
  2.1500000000000000e-01   1.1240462008512530e-10
  2.2000000000000000e-01   1.1275276168543434e-10
  2.2500000000000001e-01   1.1310317168631504e-10
  2.3000000000000001e-01   1.1345501730072825e-10
  2.3500000000000001e-01   1.1380809416452267e-10
  2.3999999999999999e-01   1.1416284443647394e-10
  2.4500000000000000e-01   1.1451930833583845e-10
  2.5000000000000000e-01   1.1487693962966668e-10
  2.5500000000000000e-01   1.1523540778972026e-10
  2.6000000000000001e-01   1.1559487259359504e-10
  2.6500000000000001e-01   1.1595538983087811e-10
  2.7000000000000002e-01   1.1631659655101474e-10
  2.7500000000000002e-01   1.1667813217220656e-10
  2.8000000000000003e-01   1.1703995637374914e-10
  2.8500000000000003e-01   1.1740206598733984e-10
  2.8999999999999998e-01   1.1776419740281346e-10
  2.9499999999999998e-01   1.1812600444247432e-10
  2.9999999999999999e-01   1.1848732449165059e-10
  3.0499999999999999e-01   1.1884808106631520e-10
  3.1000000000000000e-01   1.1920805760036542e-10
  3.1500000000000000e-01   1.1956693924386774e-10
  3.2000000000000001e-01   1.1992450000826100e-10
  3.2500000000000001e-01   1.2028060015963553e-10
  3.3000000000000002e-01   1.2063503733240706e-10
  3.3500000000000002e-01   1.2098752469485630e-10
  3.4000000000000002e-01   1.2133780573413482e-10
  3.4500000000000003e-01   1.2168569006403298e-10
  3.5000000000000003e-01   1.2203096797117912e-10
  3.5499999999999998e-01   1.2237336827683374e-10
  3.5999999999999999e-01   1.2271261969801608e-10
  3.6499999999999999e-01   1.2304849466027795e-10
  3.7000000000000000e-01   1.2338076823846159e-10
  3.7500000000000000e-01   1.2370917756019684e-10
  3.8000000000000000e-01   1.2403344890347276e-10
  3.8500000000000001e-01   1.2435333547348476e-10
  3.9000000000000001e-01   1.2466860319264809e-10
  3.9500000000000002e-01   1.2497899965849436e-10
  4.0000000000000002e-01   1.2528426168650165e-10
  4.0500000000000003e-01   1.2558414239321976e-10
  4.1000000000000003e-01   1.2587841068125655e-10
  4.1500000000000004e-01   1.2616683064545077e-10
  4.1999999999999998e-01   1.2644915956990958e-10
  4.2499999999999999e-01   1.2672516478446235e-10
  4.2999999999999999e-01   1.2699462871434067e-10
  4.3500000000000000e-01   1.2725733699325294e-10
  4.4000000000000000e-01   1.2751307321203187e-10
  4.4500000000000001e-01   1.2776162820678894e-10
  4.5000000000000001e-01   1.2800280645075504e-10
  4.5500000000000002e-01   1.2823642047285466e-10
  4.6000000000000002e-01   1.2846228570112745e-10
  4.6500000000000002e-01   1.2868022493831020e-10
  4.7000000000000003e-01   1.2889007408790726e-10
  4.7500000000000003e-01   1.2909168044267481e-10
  4.7999999999999998e-01   1.2928489877109217e-10
  4.8499999999999999e-01   1.2946959292331794e-10
  4.8999999999999999e-01   1.2964564001508742e-10
  4.9500000000000000e-01   1.2981293055753146e-10
  5.0000000000000000e-01   1.2997136578528862e-10
  5.0500000000000000e-01   1.3012085764544113e-10
  5.1000000000000001e-01   1.3026133132989762e-10
  5.1500000000000001e-01   1.3039272599545745e-10
  5.2000000000000002e-01   1.3051499307234571e-10
  5.2500000000000002e-01   1.3062809553936458e-10
  5.3000000000000003e-01   1.3073200920149583e-10
  5.3500000000000003e-01   1.3082672346757139e-10
  5.4000000000000004e-01   1.3091224041495982e-10
  5.4500000000000004e-01   1.3098857394456545e-10
  5.5000000000000004e-01   1.3105575028695322e-10
  5.5500000000000005e-01   1.3111380863168863e-10
  5.6000000000000005e-01   1.3116280067792740e-10
  5.6500000000000006e-01   1.3120278988286101e-10
  5.7000000000000006e-01   1.3123385148064586e-10
  5.7500000000000007e-01   1.3125607281889338e-10
  5.7999999999999996e-01   1.3126955307907270e-10
  5.8499999999999996e-01   1.3127440258356082e-10
  5.8999999999999997e-01   1.3127074245973494e-10
  5.9499999999999997e-01   1.3125870462302884e-10
  5.9999999999999998e-01   1.3123843146278319e-10
  6.0499999999999998e-01   1.3121007516714014e-10
  6.0999999999999999e-01   1.3117379717426386e-10
  6.1499999999999999e-01   1.3112976788882159e-10
  6.2000000000000000e-01   1.3107816630957471e-10
  6.2500000000000000e-01   1.3101917941126668e-10
  6.3000000000000000e-01   1.3095300154675896e-10
  6.3500000000000001e-01   1.3087983404509027e-10
  6.4000000000000001e-01   1.3079988482859030e-10
  6.4500000000000002e-01   1.3071336788484210e-10
  6.5000000000000002e-01   1.3062050270929334e-10
  6.5500000000000003e-01   1.3052151386749393e-10
  6.6000000000000003e-01   1.3041663060737562e-10
  6.6500000000000004e-01   1.3030608638958831e-10
  6.7000000000000004e-01   1.3019011836734620e-10
  6.7500000000000004e-01   1.3006896692357570e-10
  6.8000000000000005e-01   1.2994287525646024e-10
  6.8500000000000005e-01   1.2981208892620347e-10
  6.9000000000000006e-01   1.2967685535729732e-10
  6.9500000000000006e-01   1.2953742336721855e-10
  7.0000000000000007e-01   1.2939404274119713e-10
  7.0499999999999996e-01   1.2924696380430708e-10
  7.0999999999999996e-01   1.2909643697222075e-10
  7.1499999999999997e-01   1.2894271232110165e-10
  7.1999999999999997e-01   1.2878603920225049e-10
  7.2499999999999998e-01   1.2862666587692300e-10
  7.2999999999999998e-01   1.2846483914940810e-10
  7.3499999999999999e-01   1.2830080401562315e-10
  7.3999999999999999e-01   1.2813480334754574e-10
  7.4500000000000000e-01   1.2796707760216387e-10
  7.5000000000000000e-01   1.2779786453532978e-10
  7.5500000000000000e-01   1.2762739892420625e-10
  7.6000000000000001e-01   1.2745591231217350e-10
  7.6500000000000001e-01   1.2728363277328763e-10
  7.7000000000000002e-01   1.2711078468294761e-10
  7.7500000000000002e-01   1.2693758849361357e-10
  7.8000000000000003e-01   1.2676426052529183e-10
  7.8500000000000003e-01   1.2659101277321164e-10
  7.9000000000000004e-01   1.2641805272584711e-10
  7.9500000000000004e-01   1.2624558319116055e-10
  8.0000000000000004e-01   1.2607380213730045e-10
  8.0500000000000005e-01   1.2590290255161706e-10
  8.1000000000000005e-01   1.2573307231467295e-10
  8.1500000000000006e-01   1.2556449408632821e-10
  8.2000000000000006e-01   1.2539734520631605e-10
  8.2500000000000007e-01   1.2523179761175968e-10
  8.3000000000000007e-01   1.2506801776934867e-10
  8.3499999999999996e-01   1.2490616661865172e-10
  8.3999999999999997e-01   1.2474639952625885e-10
  8.4499999999999997e-01   1.2458886625173054e-10
  8.4999999999999998e-01   1.2443371092391431e-10
  8.5499999999999998e-01   1.2428107202484117e-10
  8.5999999999999999e-01   1.2413108238031183e-10
  8.6499999999999999e-01   1.2398386915793313e-10
  8.7000000000000000e-01   1.2383955387245573e-10
  8.7500000000000000e-01   1.2369825239714350e-10
  8.8000000000000000e-01   1.2356007498075565e-10
  8.8500000000000001e-01   1.2342512627099951e-10
  8.9000000000000001e-01   1.2329350534500289e-10
  8.9500000000000002e-01   1.2316530574636041e-10
  9.0000000000000002e-01   1.2304061552836642e-10
  9.0500000000000003e-01   1.2291951730374057e-10
  9.1000000000000003e-01   1.2280208830104584e-10
  9.1500000000000004e-01   1.2268840042723057e-10
  9.2000000000000004e-01   1.2257852033546845e-10
  9.2500000000000004e-01   1.2247250949785304e-10
  9.3000000000000005e-01   1.2237042428261525e-10
  9.3500000000000005e-01   1.2227231603515580e-10
  9.4000000000000006e-01   1.2217823116200615e-10
  9.4500000000000006e-01   1.2208821121714520e-10
  9.5000000000000007e-01   1.2200229299038203e-10
  9.5500000000000007e-01   1.2192050859746081e-10
  9.5999999999999996e-01   1.2184288557147083e-10
  9.6499999999999997e-01   1.2176944695535635e-10
  9.6999999999999997e-01   1.2170021139557486e-10
  9.7499999999999998e-01   1.2163519323696064e-10
  9.7999999999999998e-01   1.2157440261874800e-10
  9.8499999999999999e-01   1.2151784557173799e-10
  9.8999999999999999e-01   1.2146552411668235e-10
  9.9500000000000000e-01   1.2141743636391795e-10
  1.0000000000000000e+00   1.2137357661413744e-10
  1.0050000000000001e+00   1.2133393546010509e-10
  1.0100000000000000e+00   1.2129849988913784e-10
  1.0150000000000001e+00   1.2126725338614579e-10
  1.0200000000000000e+00   1.2124017603694627e-10
  1.0249999999999999e+00   1.2121724463152379e-10
  1.0300000000000000e+00   1.2119843276695704e-10
  1.0349999999999999e+00   1.2118371094978403e-10
  1.0400000000000000e+00   1.2117304669759697e-10
  1.0449999999999999e+00   1.2116640463968304e-10
  1.0500000000000000e+00   1.2116374661659770e-10
  1.0549999999999999e+00   1.2116503177863187e-10
  1.0600000000000001e+00   1.2117021668317317e-10
  1.0649999999999999e+00   1.2117925539097380e-10
  1.0700000000000001e+00   1.2119209956136374e-10
  1.0750000000000000e+00   1.2120869854646728e-10
  1.0800000000000001e+00   1.2122899948447581e-10
  1.0850000000000000e+00   1.2125294739199629e-10
  1.0900000000000001e+00   1.2128048525547073e-10
  1.0950000000000000e+00   1.2131155412163789e-10
  1.1000000000000001e+00   1.2134609318698807e-10
  1.1050000000000000e+00   1.2138403988612758e-10
  1.1100000000000001e+00   1.2142532997895063e-10
  1.1150000000000000e+00   1.2146989763651342e-10
  1.1200000000000001e+00   1.2151767552550988e-10
  1.1250000000000000e+00   1.2156859489125770e-10
  1.1300000000000001e+00   1.2162258563911456e-10
  1.1350000000000000e+00   1.2167957641427467e-10
  1.1400000000000001e+00   1.2173949467991764e-10
  1.1450000000000000e+00   1.2180226679371186e-10
  1.1500000000000001e+00   1.2186781808268762e-10
  1.1550000000000000e+00   1.2193607291651672e-10
  1.1599999999999999e+00   1.2200695477924613e-10
  1.1650000000000000e+00   1.2208038633953599e-10
  1.1699999999999999e+00   1.2215628951944871e-10
  1.1750000000000000e+00   1.2223458556182640e-10
  1.1799999999999999e+00   1.2231519509628485e-10
  1.1850000000000001e+00   1.2239803820383597e-10
  1.1899999999999999e+00   1.2248303448013723e-10
  1.1950000000000001e+00   1.2257010309735405e-10
  1.2000000000000000e+00   1.2265916286461060e-10
  1.2050000000000001e+00   1.2275013228700240e-10
  1.2100000000000000e+00   1.2284292962314167e-10
  1.2150000000000001e+00   1.2293747294120853e-10
  1.2200000000000000e+00   1.2303368017349200e-10
  1.2250000000000001e+00   1.2313146916941104e-10
  1.2300000000000000e+00   1.2323075774702114e-10
  1.2350000000000001e+00   1.2333146374301904e-10
  1.2400000000000000e+00   1.2343350506127093e-10
  1.2450000000000001e+00   1.2353679971989745e-10
  1.2500000000000000e+00   1.2364126589695216e-10
  1.2550000000000001e+00   1.2374682197473343e-10
  1.2600000000000000e+00   1.2385338658276781e-10
  1.2650000000000001e+00   1.2396087863949946e-10
  1.2700000000000000e+00   1.2406921739271454e-10
  1.2750000000000001e+00   1.2417832245872123e-10
  1.2800000000000000e+00   1.2428811386030181e-10
  1.2849999999999999e+00   1.2439851206344328e-10
  1.2900000000000000e+00   1.2450943801285148e-10
  1.2949999999999999e+00   1.2462081316624787e-10
  1.3000000000000000e+00   1.2473255952744978e-10
  1.3049999999999999e+00   1.2484459967823232e-10
  1.3100000000000001e+00   1.2495685680897790e-10
  1.3149999999999999e+00   1.2506925474811937e-10
  1.3200000000000001e+00   1.2518171799038976e-10
  1.3250000000000000e+00   1.2529417172389724e-10
  1.3300000000000001e+00   1.2540654185604730e-10
  1.3350000000000000e+00   1.2551875503833841e-10
  1.3400000000000001e+00   1.2563073869006057e-10
  1.3450000000000000e+00   1.2574242102092655e-10
  1.3500000000000001e+00   1.2585373105266576e-10
  1.3550000000000000e+00   1.2596459863960798e-10
  1.3600000000000001e+00   1.2607495448828142e-10
  1.3650000000000000e+00   1.2618473017604952e-10
  1.3700000000000001e+00   1.2629385816880316e-10
  1.3750000000000000e+00   1.2640227183772331e-10
  1.3800000000000001e+00   1.2650990547512735e-10
  1.3850000000000000e+00   1.2661669430941109e-10
  1.3900000000000001e+00   1.2672257451909596e-10
  1.3950000000000000e+00   1.2682748324599182e-10
  1.4000000000000001e+00   1.2693135860748789e-10
  1.4050000000000000e+00   1.2703413970798372e-10
  1.4099999999999999e+00   1.2713576664947925e-10
  1.4150000000000000e+00   1.2723618054134001e-10
  1.4199999999999999e+00   1.2733532350925790e-10
  1.4250000000000000e+00   1.2743313870343008e-10
  1.4299999999999999e+00   1.2752957030598150e-10
  1.4350000000000001e+00   1.2762456353765258e-10
  1.4399999999999999e+00   1.2771806466377806e-10
  1.4450000000000001e+00   1.2781002099957840e-10
  1.4500000000000000e+00   1.2790038091478838e-10
  1.4550000000000001e+00   1.2798909383764104e-10
  1.4600000000000000e+00   1.2807611025822715e-10
  1.4650000000000001e+00   1.2816138173124593e-10
  1.4700000000000000e+00   1.2824486087816596e-10
  1.4750000000000001e+00   1.2832650138880668e-10
  1.4800000000000000e+00   1.2840625802235807e-10
  1.4850000000000001e+00   1.2848408660785217e-10
  1.4900000000000000e+00   1.2855994404410045e-10
  1.4950000000000001e+00   1.2863378829911181e-10
  1.5000000000000000e+00   1.2870557840900853e-10
  1.5050000000000001e+00   1.2877527447645688e-10
  1.5100000000000000e+00   1.2884283766863061e-10
  1.5150000000000001e+00   1.2890823021472515e-10
  1.5200000000000000e+00   1.2897141540304325e-10
  1.5250000000000001e+00   1.2903235757767063e-10
  1.5300000000000000e+00   1.2909102213476134e-10
  1.5350000000000001e+00   1.2914737551845081e-10
  1.5400000000000000e+00   1.2920138521641591e-10
  1.5449999999999999e+00   1.2925301975509770e-10
  1.5500000000000000e+00   1.2930224869460433e-10
  1.5549999999999999e+00   1.2934904262330784e-10
  1.5600000000000001e+00   1.2939337315214977e-10
  1.5649999999999999e+00   1.2943521290866956e-10
  1.5700000000000001e+00   1.2947453553076743e-10
  1.5750000000000000e+00   1.2951131566021479e-10
  1.5800000000000001e+00   1.2954552893592471e-10
  1.5850000000000000e+00   1.2957715198699591e-10
  1.5900000000000001e+00   1.2960616242554046e-10
  1.5950000000000000e+00   1.2963253883931018e-10
  1.6000000000000001e+00   1.2965626078413411e-10
  1.6050000000000000e+00   1.2967730877617899e-10
  1.6100000000000001e+00   1.2969566428404768e-10
  1.6150000000000000e+00   1.2971130972072692e-10
  1.6200000000000001e+00   1.2972422843539688e-10
  1.6250000000000000e+00   1.2973440470511580e-10
  1.6300000000000001e+00   1.2974182372638983e-10
  1.6350000000000000e+00   1.2974647160663894e-10
  1.6400000000000001e+00   1.2974833535556909e-10
  1.6450000000000000e+00   1.2974740287645962e-10
  1.6500000000000001e+00   1.2974366295737495e-10
  1.6550000000000000e+00   1.2973710526230638e-10
  1.6600000000000001e+00   1.2972772032225429e-10
  1.6650000000000000e+00   1.2971549952625397e-10
  1.6699999999999999e+00   1.2970043511235450e-10
  1.6750000000000000e+00   1.2968252015855483e-10
  1.6799999999999999e+00   1.2966174857370445e-10
  1.6850000000000001e+00   1.2963811508837252e-10
  1.6899999999999999e+00   1.2961161524569315e-10
  1.6950000000000001e+00   1.2958224539219063e-10
  1.7000000000000000e+00   1.2955000266859070e-10
  1.7050000000000001e+00   1.2951488500062248e-10
  1.7100000000000000e+00   1.2947689108981475e-10
  1.7150000000000001e+00   1.2943602040429186e-10
  1.7200000000000000e+00   1.2939227316957197e-10
  1.7250000000000001e+00   1.2934565035937098e-10
  1.7300000000000000e+00   1.2929615368641485e-10
  1.7350000000000001e+00   1.2924378559326194e-10
  1.7400000000000000e+00   1.2918854924313659e-10
  1.7450000000000001e+00   1.2913044851077581e-10
  1.7500000000000000e+00   1.2906948797328872e-10
  1.7550000000000001e+00   1.2900567290102965e-10
  1.7600000000000000e+00   1.2893900924848507e-10
  1.7650000000000001e+00   1.2886950364517218e-10
  1.7700000000000000e+00   1.2879716338655149e-10
  1.7750000000000001e+00   1.2872199642495097e-10
  1.7800000000000000e+00   1.2864401136050093e-10
  1.7850000000000001e+00   1.2856321743207964e-10
  1.7900000000000000e+00   1.2847962450826727e-10
  1.7949999999999999e+00   1.2839324307830862e-10
  1.8000000000000000e+00   1.2830408424308180e-10
  1.8049999999999999e+00   1.2821215970607108e-10
  1.8100000000000001e+00   1.2811748176434338e-10
  1.8149999999999999e+00   1.2802006329952521e-10
  1.8200000000000001e+00   1.2791991776877802e-10
  1.8250000000000000e+00   1.2781705919576885e-10
  1.8300000000000001e+00   1.2771150216163491e-10
  1.8350000000000000e+00   1.2760326179593774e-10
  1.8400000000000001e+00   1.2749235376760481e-10
  1.8450000000000000e+00   1.2737879427585493e-10
  1.8500000000000001e+00   1.2726260004110473e-10
  1.8550000000000000e+00   1.2714378829585229e-10
  1.8600000000000001e+00   1.2702237677553579e-10
  1.8650000000000000e+00   1.2689838370936274e-10
  1.8700000000000001e+00   1.2677182781110818e-10
  1.8750000000000000e+00   1.2664272826987728e-10
  1.8800000000000001e+00   1.2651110474083043e-10
  1.8850000000000000e+00   1.2637697733586773e-10
  1.8900000000000001e+00   1.2624036661426979e-10
  1.8950000000000000e+00   1.2610129357329197e-10
  1.9000000000000001e+00   1.2595977963870966e-10
  1.9050000000000000e+00   1.2581584665531267e-10
  1.9100000000000001e+00   1.2566951687734402e-10
  1.9150000000000000e+00   1.2552081295888335e-10
  1.9199999999999999e+00   1.2536975794416997e-10
  1.9250000000000000e+00   1.2521637525786582e-10
  1.9299999999999999e+00   1.2506068869525421e-10
  1.9350000000000001e+00   1.2490272241237273e-10
  1.9399999999999999e+00   1.2474250091607910e-10
  1.9450000000000001e+00   1.2458004905404805e-10
  1.9500000000000000e+00   1.2441539200469761e-10
  1.9550000000000001e+00   1.2424855526704385e-10
  1.9600000000000000e+00   1.2407956465048241e-10
  1.9650000000000001e+00   1.2390844626449646e-10
  1.9700000000000000e+00   1.2373522650829145e-10
  1.9750000000000001e+00   1.2355993206035471e-10
  1.9800000000000000e+00   1.2338258986794046e-10
  1.9850000000000001e+00   1.2320322713648034e-10
