# ZND solution.
# Columns are: spatial coordinate; specific volume; density;
# flow velocity in lab frame; pressure; reaction progress variable.
 -8.1500000000000004e+00   5.5721746169784858e-01   1.7946314836455186e+00   3.0151164610293830e+00   2.1531359046879963e+01   9.9999999999900002e-01
 -8.0999999999999996e+00   5.5721746169784858e-01   1.7946314836455186e+00   3.0151164610293830e+00   2.1531359046879963e+01   9.9999999999900002e-01
 -8.0500000000000007e+00   5.5721746169784858e-01   1.7946314836455186e+00   3.0151164610293830e+00   2.1531359046879963e+01   9.9999999999900002e-01
 -8.0000000000000000e+00   5.5721746169784858e-01   1.7946314836455186e+00   3.0151164610293830e+00   2.1531359046879963e+01   9.9999999999900002e-01
 -7.9500000000000002e+00   5.5721746169784858e-01   1.7946314836455186e+00   3.0151164610293830e+00   2.1531359046879963e+01   9.9999999999900002e-01
 -7.9000000000000004e+00   5.5721746169784858e-01   1.7946314836455186e+00   3.0151164610293830e+00   2.1531359046879963e+01   9.9999999999900002e-01
 -7.8500000000000005e+00   5.5721746169784858e-01   1.7946314836455186e+00   3.0151164610293830e+00   2.1531359046879963e+01   9.9999999999900002e-01
 -7.8000000000000007e+00   5.5721746169784858e-01   1.7946314836455186e+00   3.0151164610293830e+00   2.1531359046879963e+01   9.9999999999900002e-01
 -7.7500000000000000e+00   5.5721746169784858e-01   1.7946314836455186e+00   3.0151164610293830e+00   2.1531359046879963e+01   9.9999999999900002e-01
 -7.7000000000000002e+00   5.5721746169784858e-01   1.7946314836455186e+00   3.0151164610293830e+00   2.1531359046879963e+01   9.9999999999900002e-01
 -7.6500000000000004e+00   5.5721746169784858e-01   1.7946314836455186e+00   3.0151164610293830e+00   2.1531359046879963e+01   9.9999999999900002e-01
 -7.6000000000000005e+00   5.5721746169784858e-01   1.7946314836455186e+00   3.0151164610293830e+00   2.1531359046879963e+01   9.9999999999900002e-01
 -7.5500000000000007e+00   5.5721741648008172e-01   1.7946316292784901e+00   3.0151167689386194e+00   2.1531361143580096e+01   9.9999999999878508e-01
 -7.5000000000000000e+00   5.5721736536779909e-01   1.7946317938959711e+00   3.0151171169864108e+00   2.1531363513602706e+01   9.9999999999851741e-01
 -7.4500000000000002e+00   5.5721730898120858e-01   1.7946319755004660e+00   3.0151175009494686e+00   2.1531366128189404e+01   9.9999999999819089e-01
 -7.4000000000000004e+00   5.5721724658019933e-01   1.7946321764756643e+00   3.0151179258675578e+00   2.1531369021658353e+01   9.9999999999779221e-01
 -7.3500000000000005e+00   5.5721717767431311e-01   1.7946323984011998e+00   3.0151183950804419e+00   2.1531372216751581e+01   9.9999999999730560e-01
 -7.3000000000000007e+00   5.5721710161962323e-01   1.7946326433509869e+00   3.0151189129729232e+00   2.1531375743327295e+01   9.9999999999671185e-01
 -7.2500000000000000e+00   5.5721701753414021e-01   1.7946329141656749e+00   3.0151194855508865e+00   2.1531379642282410e+01   9.9999999999598721e-01
 -7.2000000000000002e+00   5.5721692467061079e-01   1.7946332132519716e+00   3.0151201179027343e+00   2.1531383948266271e+01   9.9999999999510303e-01
 -7.1500000000000004e+00   5.5721682205545053e-01   1.7946335437455379e+00   3.0151208166580643e+00   2.1531388706422966e+01   9.9999999999402356e-01
 -7.1000000000000005e+00   5.5721670869620077e-01   1.7946339088428311e+00   3.0151215885750000e+00   2.1531393962771755e+01   9.9999999999270661e-01
 -7.0500000000000007e+00   5.5721658350934955e-01   1.7946343120335739e+00   3.0151224410316870e+00   2.1531399767553939e+01   9.9999999999109923e-01
 -7.0000000000000000e+00   5.5721644517998459e-01   1.7946347575527737e+00   3.0151233829819883e+00   2.1531406181740618e+01   9.9999999998913769e-01
 -6.9500000000000002e+00   5.5721629238647485e-01   1.7946352496570912e+00   3.0151244234255166e+00   2.1531413266614425e+01   9.9999999998674394e-01
 -6.9000000000000004e+00   5.5721612359583017e-01   1.7946357932839316e+00   3.0151255728011290e+00   2.1531421093258501e+01   9.9999999998382283e-01
 -6.8500000000000005e+00   5.5721593715138684e-01   1.7946363937690384e+00   3.0151268423898361e+00   2.1531429738490591e+01   9.9999999998025801e-01
 -6.8000000000000007e+00   5.5721573114819478e-01   1.7946370572478403e+00   3.0151282451633459e+00   2.1531439290641217e+01   9.9999999997590761e-01
 -6.7500000000000000e+00   5.5721550359188365e-01   1.7946377901437951e+00   3.0151297947022733e+00   2.1531449842187232e+01   9.9999999997059819e-01
 -6.7000000000000002e+00   5.5721525219188206e-01   1.7946385998343797e+00   3.0151315066042059e+00   2.1531461499340011e+01   9.9999999996411892e-01
 -6.6500000000000004e+00   5.5721497448444912e-01   1.7946394942548483e+00   3.0151333976459251e+00   2.1531474376340622e+01   9.9999999995621169e-01
 -6.6000000000000005e+00   5.5721466771337624e-01   1.7946404822824704e+00   3.0151354865957631e+00   2.1531488600991544e+01   9.9999999994656219e-01
 -6.5500000000000007e+00   5.5721432881585431e-01   1.7946415737820618e+00   3.0151377943098407e+00   2.1531504315312009e+01   9.9999999993478617e-01
 -6.5000000000000000e+00   5.5721395442214761e-01   1.7946427796070517e+00   3.0151403437342879e+00   2.1531521675553101e+01   9.9999999992041511e-01
 -6.4500000000000002e+00   5.5721354084208008e-01   1.7946441116430263e+00   3.0151431599972653e+00   2.1531540852824396e+01   9.9999999990287691e-01
 -6.4000000000000004e+00   5.5721308395095359e-01   1.7946455831751806e+00   3.0151462711857997e+00   2.1531562038383790e+01   9.9999999988147403e-01
 -6.3500000000000005e+00   5.5721257921662248e-01   1.7946472088011478e+00   3.0151497081614220e+00   2.1531585442382092e+01   9.9999999985535415e-01
 -6.3000000000000007e+00   5.5721202163323413e-01   1.7946490046444403e+00   3.0151535050113587e+00   2.1531611296935409e+01   9.9999999982347842e-01
 -6.2500000000000000e+00   5.5721140567686100e-01   1.7946509884973922e+00   3.0151576993506546e+00   2.1531639858182434e+01   9.9999999978457832e-01
 -6.2000000000000002e+00   5.5721072522833648e-01   1.7946531800697396e+00   3.0151623328476194e+00   2.1531671409862462e+01   9.9999999973710585e-01
 -6.1500000000000004e+00   5.5720997353091972e-01   1.7946556011250394e+00   3.0151674515121076e+00   2.1531706265278434e+01   9.9999999967917141e-01
 -6.0999999999999996e+00   5.5720914312374148e-01   1.7946582756951035e+00   3.0151731061487204e+00   2.1531744770382986e+01   9.9999999960847019e-01
 -6.0500000000000007e+00   5.5720822576279416e-01   1.7946612303345717e+00   3.0151793528948172e+00   2.1531787307442052e+01   9.9999999952218765e-01
 -6.0000000000000000e+00   5.5720721235438853e-01   1.7946644943353525e+00   3.0151862536736451e+00   2.1531834298120405e+01   9.9999999941689077e-01
 -5.9500000000000002e+00   5.5720609282983924e-01   1.7946681001303804e+00   3.0151938770476607e+00   2.1531886209292356e+01   9.9999999928838912e-01
 -5.9000000000000004e+00   5.5720485608202863e-01   1.7946720834981120e+00   3.0152022986505003e+00   2.1531943555983233e+01   9.9999999913156845e-01
 -5.8499999999999996e+00   5.5720348983653312e-01   1.7946764839778195e+00   3.0152116020645399e+00   2.1532006907345107e+01   9.9999999894018754e-01
 -5.8000000000000007e+00   5.5720198052873582e-01   1.7946813452656569e+00   3.0152218796576937e+00   2.1532076892354944e+01   9.9999999870663014e-01
 -5.7500000000000000e+00   5.5720031317837626e-01   1.7946867156190389e+00   3.0152332334376659e+00   2.1532154205631613e+01   9.9999999842160092e-01
 -5.7000000000000002e+00   5.5719847123565969e-01   1.7946926483526968e+00   3.0152457760998641e+00   2.1532239614571637e+01   9.9999999807375550e-01
 -5.6500000000000004e+00   5.5719643641802363e-01   1.7946992023649149e+00   3.0152596321389327e+00   2.1532333966918145e+01   9.9999999764925018e-01
 -5.5999999999999996e+00   5.5719418851972613e-01   1.7947064427514168e+00   3.0152749391453595e+00   2.1532438199590064e+01   9.9999999713118826e-01
 -5.5500000000000007e+00   5.5719170522964478e-01   1.7947144413929370e+00   3.0152918490461667e+00   2.1532553347130602e+01   9.9999999649895011e-01
 -5.5000000000000000e+00   5.5718896189141187e-01   1.7947232777286886e+00   3.0153105297382643e+00   2.1532680552829504e+01   9.9999999572737053e-01
 -5.4500000000000002e+00   5.5718593127106819e-01   1.7947330395058108e+00   3.0153311666706069e+00   2.1532821079496724e+01   9.9999999478573742e-01
 -5.4000000000000004e+00   5.5718258327541581e-01   1.7947438236878615e+00   3.0153539647620620e+00   2.1532976322522092e+01   9.9999999363656800e-01
 -5.3499999999999996e+00   5.5717888466193755e-01   1.7947557373907654e+00   3.0153791503767069e+00   2.1533147823326050e+01   9.9999999223411751e-01
 -5.3000000000000007e+00   5.5717479870407327e-01   1.7947688989629269e+00   3.0154069736031217e+00   2.1533337284880439e+01   9.9999999052255584e-01
 -5.2500000000000000e+00   5.5717028482409492e-01   1.7947834391701480e+00   3.0154377107543158e+00   2.1533546588731681e+01   9.9999998843374505e-01
 -5.2000000000000002e+00   5.5716529819404004e-01   1.7947995024839773e+00   3.0154716670851620e+00   2.1533777813505097e+01   9.9999998588452432e-01
 -5.1500000000000004e+00   5.5715978928295462e-01   1.7948172485436635e+00   3.0155091798754352e+00   2.1534033255898748e+01   9.9999998277339763e-01
 -5.0999999999999996e+00   5.5715370337047598e-01   1.7948368537273387e+00   3.0155506217420567e+00   2.1534315453238115e+01   9.9999997897648940e-01
 -5.0500000000000007e+00   5.5714697999754270e-01   1.7948585129267156e+00   3.0155964043794716e+00   2.1534627208946073e+01   9.9999997434260846e-01
 -5.0000000000000000e+00   5.5713955236288804e-01   1.7948824414976352e+00   3.0156469826692112e+00   2.1534971620526864e+01   9.9999996868722230e-01
 -4.9500000000000002e+00   5.5713134666147623e-01   1.7949088773991015e+00   3.0157028591847936e+00   2.1535352110242119e+01   9.9999996178510187e-01
 -4.9000000000000004e+00   5.5712228134339781e-01   1.7949380835903459e+00   3.0157645892382585e+00   2.1535772459475076e+01   9.9999995336134140e-01
 -4.8499999999999996e+00   5.5711226630286015e-01   1.7949703506552752e+00   3.0158327864027146e+00   2.1536236846336255e+01   9.9999994308039730e-01
 -4.8000000000000007e+00   5.5710120197692137e-01   1.7950059997203638e+00   3.0159081286494893e+00   2.1536749887454210e+01   9.9999993053270464e-01
 -4.7500000000000000e+00   5.5708897834962146e-01   1.7950453856805861e+00   3.0159913651294707e+00   2.1537316684152906e+01   9.9999991521833742e-01
 -4.7000000000000002e+00   5.5707547385329015e-01   1.7950889007606126e+00   3.0160833236546249e+00   2.1537942873396926e+01   9.9999989652705956e-01
 -4.6500000000000004e+00   5.5706055414995959e-01   1.7951369784671596e+00   3.0161849189959367e+00   2.1538634684296081e+01   9.9999987371396548e-01
 -4.5999999999999996e+00   5.5704407078621609e-01   1.7951900979550732e+00   3.0162971620431596e+00   2.1539399000478504e+01   9.9999984586973834e-01
 -4.5500000000000007e+00   5.5702585970371077e-01   1.7952487888657680e+00   3.0164211699474586e+00   2.1540243429156703e+01   9.9999981188432463e-01
 -4.5000000000000000e+00   5.5700573959182675e-01   1.7953136366831677e+00   3.0165581773388790e+00   2.1541176377512659e+01   9.9999977040257881e-01
 -4.4500000000000002e+00   5.5698351006426705e-01   1.7953852886679103e+00   3.0167095487428264e+00   2.1542207137247495e+01   9.9999971977008573e-01
 -4.4000000000000004e+00   5.5695894964242754e-01   1.7954644604274852e+00   3.0168767923122366e+00   2.1543345978090368e+01   9.9999965796698986e-01
 -4.3499999999999996e+00   5.5693181352136933e-01   1.7955519432032414e+00   3.0170615750401297e+00   2.1544604251387959e+01   9.9999958252716148e-01
 -4.3000000000000007e+00   5.5690183109823244e-01   1.7956486119428992e+00   3.0172657395898166e+00   2.1545994504709331e+01   9.9999949043944814e-01
 -4.2500000000000000e+00   5.5686870323351101e-01   1.7957554342583899e+00   3.0174913229441724e+00   2.1547530608837693e+01   9.9999937802701999e-01
 -4.2000000000000002e+00   5.5683209921868626e-01   1.7958734803599516e+00   3.0177405770544654e+00   2.1549227898378074e+01   9.9999924079993785e-01
 -4.1500000000000004e+00   5.5679165341558778e-01   1.7960039340848428e+00   3.0180159917245413e+00   2.1551103327586592e+01   9.9999907327497295e-01
 -4.1000000000000005e+00   5.5674696153264469e-01   1.7961481051412354e+00   3.0183203199675943e+00   2.1553175643036756e+01   9.9999886875537225e-01
 -4.0499999999999998e+00   5.5669757649539198e-01   1.7963074427148642e+00   3.0186566061258522e+00   2.1555465575099721e+01   9.9999861906162191e-01
 -4.0000000000000000e+00   5.5664300386690158e-01   1.7964835505937826e+00   3.0190282170550318e+00   2.1557996050294079e+01   9.9999831420224305e-01
 -3.9500000000000002e+00   5.5658269676722327e-01   1.7966782039906370e+00   3.0194388767202800e+00   2.1560792426866016e+01   9.9999794197118763e-01
 -3.9000000000000004e+00   5.5651605023248407e-01   1.7968933682725790e+00   3.0198927046077424e+00   2.1563882756351926e+01   9.9999748745535355e-01
 -3.8500000000000005e+00   5.5644239495131265e-01   1.7971312198228491e+00   3.0203942583762204e+00   2.1567298074013792e+01   9.9999693243201304e-01
 -3.7999999999999998e+00   5.5636099030500619e-01   1.7973941692996549e+00   3.0209485812499812e+00   2.1571072721559315e+01   9.9999625463134212e-01
 -3.7500000000000000e+00   5.5627101662861511e-01   1.7976848875943379e+00   3.0215612547167043e+00   2.1575244705987238e+01   9.9999542683358733e-01
 -3.7000000000000002e+00   5.5617156660239697e-01   1.7980063348238238e+00   3.0222384571471568e+00   2.1579856098756554e+01   9.9999441576342818e-01
 -3.6500000000000004e+00   5.5606163566727029e-01   1.7983617927534357e+00   3.0229870290609178e+00   2.1584953480211794e+01   9.9999318073549104e-01
 -3.6000000000000005e+00   5.5594011134671428e-01   1.7987549010946360e+00   3.0238145458386319e+00   2.1590588434715265e+01   9.9999167199434991e-01
 -3.5499999999999998e+00   5.5580576133961201e-01   1.7991896981956139e+00   3.0247293988034909e+00   2.1596818102769348e+01   9.9998982867921438e-01
 -3.5000000000000000e+00   5.5565722023132935e-01   1.7996706667173035e+00   3.0257408857118047e+00   2.1603705797209756e+01   9.9998757632724877e-01
 -3.4500000000000002e+00   5.5549297464731873e-01   1.8002027849855307e+00   3.0268593118491602e+00   2.1611321691617238e+01   9.9998482380932519e-01
 -3.4000000000000004e+00   5.5531134664956172e-01   1.8007915848171319e+00   3.0280961030919245e+00   2.1619743590207037e+01   9.9998145956699636e-01
 -3.3499999999999996e+00   5.5511047514549683e-01   1.8014432167540988e+00   3.0294639325026780e+00   2.1629057789877280e+01   9.9997734698838314e-01
 -3.2999999999999998e+00   5.5488829504612169e-01   1.8021645237928132e+00   3.0309768622525906e+00   2.1639360046625782e+01   9.9997231872195147e-01
 -3.2500000000000000e+00   5.5464251386792074e-01   1.8029631248897269e+00   3.0326505029500006e+00   2.1650756660493979e+01   9.9996616967883090e-01
 -3.2000000000000002e+00   5.5437058542720374e-01   1.8038475097472741e+00   3.0345021927681484e+00   2.1663365695332676e+01   9.9995864841391513e-01
 -3.1500000000000004e+00   5.5406968021772951e-01   1.8048271466632786e+00   3.0365511991579988e+00   2.1677318352360395e+01   9.9994944650030038e-01
 -3.0999999999999996e+00   5.5373665199707567e-01   1.8059126055561896e+00   3.0388189463775053e+00   2.1692760519518128e+01   9.9993818541654389e-01
 -3.0499999999999998e+00   5.5336800002685371e-01   1.8071156986878032e+00   3.0413292726159096e+00   2.1709854522350735e+01   9.9992440034655050e-01
 -3.0000000000000000e+00   5.5295982631834606e-01   1.8084496420980267e+00   3.0441087211284907e+00   2.1728781106481630e+01   9.9990752014080608e-01
 -2.9500000000000002e+00   5.5250778712095416e-01   1.8099292413793284e+00   3.0471868705747474e+00   2.1749741687042249e+01   9.9988684249639592e-01
 -2.9000000000000004e+00   5.5200703775620985e-01   1.8115711061670254e+00   3.0505967106697969e+00   2.1772960906660721e+01   9.9986150317038525e-01
 -2.8499999999999996e+00   5.5145216973636502e-01   1.8133938986550258e+00   3.0543750703737458e+00   2.1798689551206525e+01   9.9983043773174796e-01
 -2.7999999999999998e+00   5.5083713890997699e-01   1.8154186226056728e+00   3.0585631071824997e+00   2.1827207881603861e+01   9.9979233396161815e-01
 -2.7500000000000000e+00   5.5015518313915512e-01   1.8176689607722227e+00   3.0632068677024682e+00   2.1858829451050852e+01   9.9974557250443152e-01
 -2.7000000000000002e+00   5.4939872772429699e-01   1.8201716704772328e+00   3.0683579316584213e+00   2.1893905490374721e+01   9.9968815271956168e-01
 -2.6500000000000004e+00   5.4855927644249802e-01   1.8229570493915868e+00   3.0740741538646752e+00   2.1932829960465764e+01   9.9961759983920595e-01
 -2.5999999999999996e+00   5.4762728563929020e-01   1.8260594864856270e+00   3.0804205215942049e+00   2.1976045390510553e+01   9.9953084844331175e-01
 -2.5499999999999998e+00   5.4659201829443171e-01   1.8295181168586545e+00   3.0874701483139444e+00   2.2024049644807263e+01   9.9942409583578773e-01
 -2.5000000000000000e+00   5.4544137434982709e-01   1.8333776039487515e+00   3.0953054290625133e+00   2.2077403790280982e+01   9.9929261703985195e-01
 -2.4500000000000002e+00   5.4416169281617099e-01   1.8376890788191158e+00   3.1040193880000015e+00   2.2136741272589795e+01   9.9913053067813085e-01
 -2.4000000000000004e+00   5.4273752023599886e-01   1.8425112742623164e+00   3.1137172550529555e+00   2.2202778652248796e+01   9.9893050176760367e-01
 -2.3499999999999996e+00   5.4115133894044298e-01   1.8479119019791543e+00   3.1245183163431003e+00   2.2276328205077547e+01   9.9868336317262074e-01
 -2.2999999999999998e+00   5.3938324715943575e-01   1.8539693349141246e+00   3.1365580924687970e+00   2.2358312755152387e+01   9.9837763175690653e-01
 -2.2500000000000000e+00   5.3741058139299813e-01   1.8607746751244538e+00   3.1499909099581722e+00   2.2449783185051277e+01   9.9799888766218503e-01
 -2.2000000000000002e+00   5.3520746949593745e-01   1.8684343119161020e+00   3.1649929445275311e+00   2.2551939158844757e+01   9.9752897494399262e-01
 -2.1500000000000004e+00   5.3274430065969691e-01   1.8770731076084730e+00   3.1817658302265048e+00   2.2666153698478276e+01   9.9694496810332534e-01
 -2.0999999999999996e+00   5.2998709592859061e-01   1.8868383922591541e+00   3.2005409458917793e+00   2.2794002372270079e+01   9.9621783064215619e-01
 -2.0499999999999998e+00   5.2689676018977261e-01   1.8979050082597388e+00   3.2215845087024229e+00   2.2937297979347026e+01   9.9531066701921789e-01
 -2.0000000000000000e+00   5.2342819402678831e-01   1.9104817268380110e+00   3.2452036219905964e+00   2.3098131732058143e+01   9.9417643618913176e-01
 -1.9500000000000002e+00   5.1952924204675854e-01   1.9248194693726177e+00   3.2717534365809109e+00   2.3278922020933329e+01   9.9275495066325414e-01
 -1.9000000000000004e+00   5.1513945448292531e-01   1.9412219182546535e+00   3.3016455836264740e+00   2.3482471837866459e+01   9.9096892673777537e-01
 -1.8499999999999996e+00   5.1018864327504243e-01   1.9600593097892627e+00   3.3353580069428381e+00   2.3712035729143938e+01   9.8871877631485161e-01
 -1.7999999999999998e+00   5.0459522649583077e-01   1.9817864844749231e+00   3.3734462365940505e+00   2.3971396562642912e+01   9.8587573721282906e-01
 -1.7500000000000000e+00   4.9826438313120230e-01   2.0069666503469130e+00   3.4165559538699029e+00   2.4264951088725073e+01   9.8227283039662483e-01
 -1.7000000000000002e+00   4.9108609640139705e-01   2.0363028139624504e+00   3.4654363152410084e+00   2.4597800669370717e+01   9.7769302445621020e-01
 -1.6500000000000004e+00   4.8293326945183052e-01   2.0706794566774893e+00   3.5209527835141716e+00   2.4975838651605702e+01   9.7185392208380883e-01
 -1.5999999999999996e+00   4.7366028771479729e-01   2.1112177354461368e+00   3.5840969173938926e+00   2.5405817029272146e+01   9.6438835899302644e-01
