# First column is time, second column is the perturbation of detonation velocity.
  0.0000000000000000e+00   1.0000000000000000e-10
  5.0000000000000001e-03   1.0023051096507116e-10
  1.0000000000000000e-02   1.0046977570645724e-10
  1.4999999999999999e-02   1.0070689484441869e-10
  2.0000000000000000e-02   1.0094729284323000e-10
  2.5000000000000001e-02   1.0119146350968496e-10
  2.9999999999999999e-02   1.0143966017979988e-10
  3.5000000000000003e-02   1.0169189465888795e-10
  4.0000000000000001e-02   1.0194816557241236e-10
  4.4999999999999998e-02   1.0220850120151241e-10
  5.0000000000000003e-02   1.0247292139898007e-10
  5.5000000000000000e-02   1.0274142227114536e-10
  5.9999999999999998e-02   1.0301401635317110e-10
  6.5000000000000002e-02   1.0329076069817286e-10
  7.0000000000000007e-02   1.0357173416866310e-10
  7.4999999999999997e-02   1.0385700428036643e-10
  8.0000000000000002e-02   1.0414662713615014e-10
  8.5000000000000006e-02   1.0444066750499085e-10
  8.9999999999999997e-02   1.0473920335202193e-10
  9.5000000000000001e-02   1.0504231162260843e-10
  1.0000000000000001e-01   1.0535005950083986e-10
  1.0500000000000000e-01   1.0566251145274156e-10
  1.1000000000000000e-01   1.0597973796105501e-10
  1.1500000000000000e-01   1.0630181355478777e-10
  1.2000000000000000e-01   1.0662880992823262e-10
  1.2500000000000000e-01   1.0696079501976006e-10
  1.3000000000000000e-01   1.0729783761457660e-10
  1.3500000000000001e-01   1.0764000951569580e-10
  1.4000000000000001e-01   1.0798738287433316e-10
  1.4499999999999999e-01   1.0834002758066721e-10
  1.4999999999999999e-01   1.0869801213697310e-10
  1.5500000000000000e-01   1.0906140566997646e-10
  1.6000000000000000e-01   1.0943027781962645e-10
  1.6500000000000001e-01   1.0980469706805789e-10
  1.7000000000000001e-01   1.1018473004716763e-10
  1.7500000000000002e-01   1.1057044229059176e-10
  1.7999999999999999e-01   1.1096189876436392e-10
  1.8500000000000000e-01   1.1135916326814132e-10
  1.9000000000000000e-01   1.1176229759133330e-10
  1.9500000000000001e-01   1.1217136137973833e-10
  2.0000000000000001e-01   1.1258641240443996e-10
  2.0500000000000002e-01   1.1300750643938119e-10
  2.0999999999999999e-01   1.1343469669578108e-10
  2.1500000000000000e-01   1.1386803336524944e-10
  2.2000000000000000e-01   1.1430756349768206e-10
  2.2500000000000001e-01   1.1475333089421917e-10
  2.3000000000000001e-01   1.1520537574223593e-10
  2.3500000000000001e-01   1.1566373412772678e-10
  2.3999999999999999e-01   1.1612843766722673e-10
  2.4500000000000000e-01   1.1659951324460750e-10
  2.5000000000000000e-01   1.1707698267319688e-10
  2.5500000000000000e-01   1.1756086223170053e-10
  2.6000000000000001e-01   1.1805116218501317e-10
  2.6500000000000001e-01   1.1854788636496323e-10
  2.7000000000000002e-01   1.1905103175691816e-10
  2.7500000000000002e-01   1.1956058801989380e-10
  2.8000000000000003e-01   1.2007653695452236e-10
  2.8500000000000003e-01   1.2059885197636477e-10
  2.8999999999999998e-01   1.2112749760478542e-10
  2.9499999999999998e-01   1.2166242893061748e-10
  2.9999999999999999e-01   1.2220359104396880e-10
  3.0499999999999999e-01   1.2275091844383261e-10
  3.1000000000000000e-01   1.2330433445232478e-10
  3.1500000000000000e-01   1.2386375062816662e-10
  3.2000000000000001e-01   1.2442906616390470e-10
  3.2500000000000001e-01   1.2500016726858235e-10
  3.3000000000000002e-01   1.2557692655122180e-10
  3.3500000000000002e-01   1.2615920241326633e-10
  3.4000000000000002e-01   1.2674683844635159e-10
  3.4500000000000003e-01   1.2733966283343130e-10
  3.5000000000000003e-01   1.2793748776086138e-10
  3.5499999999999998e-01   1.2854010885170209e-10
  3.5999999999999999e-01   1.2914730462507992e-10
  3.6499999999999999e-01   1.2975883598324895e-10
  3.7000000000000000e-01   1.3037444573133084e-10
  3.7500000000000000e-01   1.3099385813870909e-10
  3.8000000000000000e-01   1.3161677855052597e-10
  3.8500000000000001e-01   1.3224289305516406e-10
  3.9000000000000001e-01   1.3287186821351108e-10
  3.9500000000000002e-01   1.3350335085799171e-10
  4.0000000000000002e-01   1.3413696797045654e-10
  4.0500000000000003e-01   1.3477232664702554e-10
  4.1000000000000003e-01   1.3540901415695420e-10
  4.1500000000000004e-01   1.3604659810292986e-10
  4.1999999999999998e-01   1.3668462669092027e-10
  4.2499999999999999e-01   1.3732262911739731e-10
  4.2999999999999999e-01   1.3796011608070056e-10
  4.3500000000000000e-01   1.3859658042252797e-10
  4.4000000000000000e-01   1.3923149790524312e-10
  4.4500000000000001e-01   1.3986432813015288e-10
  4.5000000000000001e-01   1.4049451560076841e-10
  4.5500000000000002e-01   1.4112149093368918e-10
  4.6000000000000002e-01   1.4174467221853675e-10
  4.6500000000000002e-01   1.4236346652720450e-10
  4.7000000000000003e-01   1.4297727157125674e-10
  4.7500000000000003e-01   1.4358547750457812e-10
  4.7999999999999998e-01   1.4418746886662938e-10
  4.8499999999999999e-01   1.4478262665999368e-10
  4.8999999999999999e-01   1.4537033055420063e-10
  4.9500000000000000e-01   1.4594996120599787e-10
  5.0000000000000000e-01   1.4652090268441029e-10
  5.0500000000000000e-01   1.4708254498718732e-10
  5.1000000000000001e-01   1.4763428663364035e-10
  5.1500000000000001e-01   1.4817553731736030e-10
  5.2000000000000002e-01   1.4870572060089815e-10
  5.2500000000000002e-01   1.4922427663325333e-10
  5.3000000000000003e-01   1.4973066487002653e-10
  5.3500000000000003e-01   1.5022436677534224e-10
  5.4000000000000004e-01   1.5070488848412902e-10
  5.4500000000000004e-01   1.5117176340308596e-10
  5.5000000000000004e-01   1.5162455472869646e-10
  5.5500000000000005e-01   1.5206285786099734e-10
  5.6000000000000005e-01   1.5248630269242705e-10
  5.6500000000000006e-01   1.5289455575199142e-10
  5.7000000000000006e-01   1.5328732218615926e-10
  5.7500000000000007e-01   1.5366434755933852e-10
  5.7999999999999996e-01   1.5402541945847120e-10
  5.8499999999999996e-01   1.5437036888816059e-10
  5.8999999999999997e-01   1.5469907144481054e-10
  5.9499999999999997e-01   1.5501144826044681e-10
  5.9999999999999998e-01   1.5530746670920002e-10
  6.0499999999999998e-01   1.5558714087179913e-10
  6.0999999999999999e-01   1.5585053175581471e-10
  6.1499999999999999e-01   1.5609774727177397e-10
  6.2000000000000000e-01   1.5632894196759159e-10
  6.2500000000000000e-01   1.5654431652601381e-10
  6.3000000000000000e-01   1.5674411703188620e-10
  6.3500000000000001e-01   1.5692863401804494e-10
  6.4000000000000001e-01   1.5709820130042814e-10
  6.4500000000000002e-01   1.5725319461462471e-10
  6.5000000000000002e-01   1.5739403006748413e-10
  6.5500000000000003e-01   1.5752116241860814e-10
  6.6000000000000003e-01   1.5763508320750448e-10
  6.6500000000000004e-01   1.5773631874293534e-10
  6.7000000000000004e-01   1.5782542797150434e-10
  6.7500000000000004e-01   1.5790300024284039e-10
  6.8000000000000005e-01   1.5796965298882763e-10
  6.8500000000000005e-01   1.5802602933423003e-10
  6.9000000000000006e-01   1.5807279565579377e-10
  6.9500000000000006e-01   1.5811063910645838e-10
  7.0000000000000007e-01   1.5814026512072812e-10
  7.0499999999999996e-01   1.5816239491653969e-10
  7.0999999999999996e-01   1.5817776300814434e-10
  7.1499999999999997e-01   1.5818711474361050e-10
  7.1999999999999997e-01   1.5819120387957734e-10
  7.2499999999999998e-01   1.5819079020485542e-10
  7.2999999999999998e-01   1.5818663722340731e-10
  7.3499999999999999e-01   1.5817950990615432e-10
  7.3999999999999999e-01   1.5817017251996615e-10
  7.4500000000000000e-01   1.5815938654111118e-10
  7.5000000000000000e-01   1.5814790865938165e-10
  7.5500000000000000e-01   1.5813648887807843e-10
  7.6000000000000001e-01   1.5812586871405019e-10
  7.6500000000000001e-01   1.5811677950103299e-10
  7.7000000000000002e-01   1.5810994079864661e-10
  7.7500000000000002e-01   1.5810605890856052e-10
  7.8000000000000003e-01   1.5810582549857386e-10
  7.8500000000000003e-01   1.5810991633462507e-10
  7.9000000000000004e-01   1.5811899012010077e-10
  7.9500000000000004e-01   1.5813368744121916e-10
  8.0000000000000004e-01   1.5815462981673438e-10
  8.0500000000000005e-01   1.5818241884973576e-10
  8.1000000000000005e-01   1.5821763547890910e-10
  8.1500000000000006e-01   1.5826083932627080e-10
  8.2000000000000006e-01   1.5831256813808713e-10
  8.2500000000000007e-01   1.5837333731543785e-10
  8.3000000000000007e-01   1.5844363953068569e-10
  8.3499999999999996e-01   1.5852394442595070e-10
  8.3999999999999997e-01   1.5861469838957554e-10
  8.4499999999999997e-01   1.5871632440648358e-10
  8.4999999999999998e-01   1.5882922197829081e-10
  8.5499999999999998e-01   1.5895376710901422e-10
  8.5999999999999999e-01   1.5909031235223146e-10
  8.6499999999999999e-01   1.5923918691558685e-10
  8.7000000000000000e-01   1.5940069681859339e-10
  8.7500000000000000e-01   1.5957512509976178e-10
  8.8000000000000000e-01   1.5976273206917608e-10
  8.8500000000000001e-01   1.5996375560274610e-10
  8.9000000000000001e-01   1.6017841147448375e-10
  8.9500000000000002e-01   1.6040689372327895e-10
  9.0000000000000002e-01   1.6064937505078110e-10
  9.0500000000000003e-01   1.6090600724714341e-10
  9.1000000000000003e-01   1.6117692164151921e-10
  9.1500000000000004e-01   1.6146222957435712e-10
  9.2000000000000004e-01   1.6176202288868465e-10
  9.2500000000000004e-01   1.6207637443772223e-10
  9.3000000000000005e-01   1.6240533860631899e-10
  9.3500000000000005e-01   1.6274895184384352e-10
  9.4000000000000006e-01   1.6310723320631693e-10
  9.4500000000000006e-01   1.6348018490570543e-10
  9.5000000000000007e-01   1.6386779286443969e-10
  9.5500000000000007e-01   1.6427002727335653e-10
  9.5999999999999996e-01   1.6468684315139085e-10
  9.6499999999999997e-01   1.6511818090547119e-10
  9.6999999999999997e-01   1.6556396688919364e-10
  9.7499999999999998e-01   1.6602411395896664e-10
  9.7999999999999998e-01   1.6649852202642931e-10
  9.8499999999999999e-01   1.6698707860605144e-10
  9.8999999999999999e-01   1.6748965935692745e-10
  9.9500000000000000e-01   1.6800612861787076e-10
  1.0000000000000000e+00   1.6853633993500465e-10
  1.0050000000000001e+00   1.6908013658113750e-10
  1.0100000000000000e+00   1.6963735206628433e-10
  1.0150000000000001e+00   1.7020781063878032e-10
  1.0200000000000000e+00   1.7079132777649746e-10
  1.0249999999999999e+00   1.7138771066774801e-10
  1.0300000000000000e+00   1.7199675868151905e-10
  1.0349999999999999e+00   1.7261826382674219e-10
  1.0400000000000000e+00   1.7325201120035488e-10
  1.0449999999999999e+00   1.7389777942396685e-10
  1.0500000000000000e+00   1.7455534106898413e-10
  1.0549999999999999e+00   1.7522446307009323e-10
  1.0600000000000001e+00   1.7590490712704742e-10
  1.0649999999999999e+00   1.7659643009472985e-10
  1.0700000000000001e+00   1.7729878436150899e-10
  1.0750000000000000e+00   1.7801171821592527e-10
  1.0800000000000001e+00   1.7873497620178465e-10
  1.0850000000000000e+00   1.7946829946175309e-10
  1.0900000000000001e+00   1.8021142606957349e-10
  1.0950000000000000e+00   1.8096409135104744e-10
  1.1000000000000001e+00   1.8172602819394072e-10
  1.1050000000000000e+00   1.8249696734698916e-10
  1.1100000000000001e+00   1.8327663770820157e-10
  1.1150000000000000e+00   1.8406476660265692e-10
  1.1200000000000001e+00   1.8486108005001961e-10
  1.1250000000000000e+00   1.8566530302199512e-10
  1.1300000000000001e+00   1.8647715968996319e-10
  1.1350000000000000e+00   1.8729637366302624e-10
  1.1400000000000001e+00   1.8812266821672857e-10
  1.1450000000000000e+00   1.8895576651268756e-10
  1.1500000000000001e+00   1.8979539180940095e-10
  1.1550000000000000e+00   1.9064126766448454e-10
  1.1599999999999999e+00   1.9149311812860219e-10
  1.1650000000000000e+00   1.9235066793134353e-10
  1.1699999999999999e+00   1.9321364265931355e-10
  1.1750000000000000e+00   1.9408176892669137e-10
  1.1799999999999999e+00   1.9495477453851620e-10
  1.1850000000000001e+00   1.9583238864695400e-10
  1.1899999999999999e+00   1.9671434190079917e-10
  1.1950000000000001e+00   1.9760036658845713e-10
  1.2000000000000000e+00   1.9849019677465688e-10
  1.2050000000000001e+00   1.9938356843112964e-10
  1.2100000000000000e+00   2.0028021956149359e-10
  1.2150000000000001e+00   2.0117989032057258e-10
  1.2200000000000000e+00   2.0208232312837483e-10
  1.2250000000000001e+00   2.0298726277895425e-10
  1.2300000000000000e+00   2.0389445654436202e-10
  1.2350000000000001e+00   2.0480365427390306e-10
  1.2400000000000000e+00   2.0571460848889125e-10
  1.2450000000000001e+00   2.0662707447310470e-10
  1.2500000000000000e+00   2.0754081035912277e-10
  1.2550000000000001e+00   2.0845557721072671e-10
  1.2600000000000000e+00   2.0937113910153959e-10
  1.2650000000000001e+00   2.1028726319006978e-10
  1.2700000000000000e+00   2.1120371979131524e-10
  1.2750000000000001e+00   2.1212028244508276e-10
  1.2800000000000000e+00   2.1303672798116248e-10
  1.2849999999999999e+00   2.1395283658149864e-10
  1.2900000000000000e+00   2.1486839183947933e-10
  1.2949999999999999e+00   2.1578318081647181e-10
  1.3000000000000000e+00   2.1669699409571206e-10
  1.3049999999999999e+00   2.1760962583365911e-10
  1.3100000000000001e+00   2.1852087380890472e-10
  1.3149999999999999e+00   2.1943053946874220e-10
  1.3200000000000001e+00   2.2033842797346398e-10
  1.3250000000000000e+00   2.2124434823847090e-10
  1.3300000000000001e+00   2.2214811297425997e-10
  1.3350000000000000e+00   2.2304953872435498e-10
  1.3400000000000001e+00   2.2394844590122914e-10
  1.3450000000000000e+00   2.2484465882026922e-10
  1.3500000000000001e+00   2.2573800573182410e-10
  1.3550000000000000e+00   2.2662831885136685e-10
  1.3600000000000001e+00   2.2751543438780002e-10
  1.3650000000000000e+00   2.2839919256992435e-10
  1.3700000000000001e+00   2.2927943767108466e-10
  1.3750000000000000e+00   2.3015601803200346e-10
  1.3800000000000001e+00   2.3102878608180329e-10
  1.3850000000000000e+00   2.3189759835721168e-10
  1.3900000000000001e+00   2.3276231551995155e-10
  1.3950000000000000e+00   2.3362280237228982e-10
  1.4000000000000001e+00   2.3447892787073618e-10
  1.4050000000000000e+00   2.3533056513786851e-10
  1.4099999999999999e+00   2.3617759147225325e-10
  1.4150000000000000e+00   2.3701988835643994e-10
  1.4199999999999999e+00   2.3785734146298589e-10
  1.4250000000000000e+00   2.3868984065848027e-10
  1.4299999999999999e+00   2.3951728000553125e-10
  1.4350000000000001e+00   2.4033955776266739e-10
  1.4399999999999999e+00   2.4115657638211072e-10
  1.4450000000000001e+00   2.4196824250538336e-10
  1.4500000000000000e+00   2.4277446695669379e-10
  1.4550000000000001e+00   2.4357516473405644e-10
  1.4600000000000000e+00   2.4437025499810131e-10
  1.4650000000000001e+00   2.4515966105852379e-10
  1.4700000000000000e+00   2.4594331035812468e-10
  1.4750000000000001e+00   2.4672113445440019e-10
  1.4800000000000000e+00   2.4749306899863714e-10
  1.4850000000000001e+00   2.4825905371246381e-10
  1.4900000000000000e+00   2.4901903236182549e-10
  1.4950000000000001e+00   2.4977295272834070e-10
  1.5000000000000000e+00   2.5052076657800829e-10
  1.5050000000000001e+00   2.5126242962723130e-10
  1.5100000000000000e+00   2.5199790150613316e-10
  1.5150000000000001e+00   2.5272714571914355e-10
  1.5200000000000000e+00   2.5345012960283429e-10
  1.5250000000000001e+00   2.5416682428099981e-10
  1.5300000000000000e+00   2.5487720461696705e-10
  1.5350000000000001e+00   2.5558124916313941e-10
  1.5400000000000000e+00   2.5627894010777879e-10
  1.5449999999999999e+00   2.5697026321903913e-10
  1.5500000000000000e+00   2.5765520778626655e-10
  1.5549999999999999e+00   2.5833376655859676e-10
  1.5600000000000001e+00   2.5900593568088044e-10
  1.5649999999999999e+00   2.5967171462697389e-10
  1.5700000000000001e+00   2.6033110613045272e-10
  1.5750000000000000e+00   2.6098411611278984e-10
  1.5800000000000001e+00   2.6163075360907766e-10
  1.5850000000000000e+00   2.6227103069135172e-10
  1.5900000000000001e+00   2.6290496238960367e-10
  1.5950000000000000e+00   2.6353256661057005e-10
  1.6000000000000001e+00   2.6415386405438725e-10
  1.6050000000000000e+00   2.6476887812921956e-10
  1.6100000000000001e+00   2.6537763486397069e-10
  1.6150000000000000e+00   2.6598016281919421e-10
  1.6200000000000001e+00   2.6657649299632844e-10
  1.6250000000000000e+00   2.6716665874539152e-10
  1.6300000000000001e+00   2.6775069567126888e-10
  1.6350000000000000e+00   2.6832864153874555e-10
  1.6400000000000001e+00   2.6890053617642793e-10
  1.6450000000000000e+00   2.6946642137971775e-10
  1.6500000000000001e+00   2.7002634081299817e-10
  1.6550000000000000e+00   2.7058033991119697e-10
  1.6600000000000001e+00   2.7112846578090499e-10
  1.6650000000000000e+00   2.7167076710122151e-10
  1.6699999999999999e+00   2.7220729402450247e-10
  1.6750000000000000e+00   2.7273809807720424e-10
  1.6799999999999999e+00   2.7326323206099697e-10
  1.6850000000000001e+00   2.7378274995434310e-10
  1.6899999999999999e+00   2.7429670681471988e-10
  1.6950000000000001e+00   2.7480515868168705e-10
  1.7000000000000000e+00   2.7530816248097607e-10
  1.7050000000000001e+00   2.7580577592980188e-10
  1.7100000000000000e+00   2.7629805744357170e-10
  1.7150000000000001e+00   2.7678506604419467e-10
  1.7200000000000000e+00   2.7726686127015696e-10
  1.7250000000000001e+00   2.7774350308856016e-10
  1.7300000000000000e+00   2.7821505180929486e-10
  1.7350000000000001e+00   2.7868156800151998e-10
  1.7400000000000000e+00   2.7914311241262625e-10
  1.7450000000000001e+00   2.7959974588984497e-10
  1.7500000000000000e+00   2.8005152930466176e-10
  1.7550000000000001e+00   2.8049852348018896e-10
  1.7600000000000000e+00   2.8094078912164650e-10
  1.7650000000000001e+00   2.8137838675009048e-10
  1.7700000000000000e+00   2.8181137663952420e-10
  1.7750000000000001e+00   2.8223981875751705e-10
  1.7800000000000000e+00   2.8266377270944775e-10
  1.7850000000000001e+00   2.8308329768648112e-10
  1.7900000000000000e+00   2.8349845241738455e-10
  1.7949999999999999e+00   2.8390929512426803e-10
  1.8000000000000000e+00   2.8431588348233433e-10
  1.8049999999999999e+00   2.8471827458371241e-10
  1.8100000000000001e+00   2.8511652490543188e-10
  1.8149999999999999e+00   2.8551069028160129e-10
  1.8200000000000001e+00   2.8590082587982065e-10
  1.8250000000000000e+00   2.8628698618187009e-10
  1.8300000000000001e+00   2.8666922496869485e-10
  1.8350000000000000e+00   2.8704759530969135e-10
  1.8400000000000001e+00   2.8742214955630827e-10
  1.8450000000000000e+00   2.8779293933994028e-10
  1.8500000000000001e+00   2.8816001557410437e-10
  1.8550000000000000e+00   2.8852342846086165e-10
  1.8600000000000001e+00   2.8888322750145164e-10
  1.8650000000000000e+00   2.8923946151107741e-10
  1.8700000000000001e+00   2.8959217863779387e-10
  1.8750000000000000e+00   2.8994142638541645e-10
  1.8800000000000001e+00   2.9028725164037576e-10
  1.8850000000000000e+00   2.9062970070242887e-10
  1.8900000000000001e+00   2.9096881931912194e-10
  1.8950000000000000e+00   2.9130465272389961e-10
  1.9000000000000001e+00   2.9163724567773986e-10
  1.9050000000000000e+00   2.9196664251419577e-10
  1.9100000000000001e+00   2.9229288718769664e-10
  1.9150000000000000e+00   2.9261602332497590e-10
  1.9199999999999999e+00   2.9293609427946985e-10
  1.9250000000000000e+00   2.9325314318853174e-10
  1.9299999999999999e+00   2.9356721303329496e-10
  1.9350000000000001e+00   2.9387834670101296e-10
  1.9399999999999999e+00   2.9418658704969972e-10
  1.9450000000000001e+00   2.9449197697488228e-10
  1.9500000000000000e+00   2.9479455947828464e-10
  1.9550000000000001e+00   2.9509437773823755e-10
  1.9600000000000000e+00   2.9539147518162576e-10
  1.9650000000000001e+00   2.9568589555715790e-10
  1.9700000000000000e+00   2.9597768300976428e-10
  1.9750000000000001e+00   2.9626688215590338e-10
  1.9800000000000000e+00   2.9655353815956401e-10
  1.9850000000000001e+00   2.9683769680875397e-10
