# First column is time, second column is the perturbation of detonation velocity.
  0.0000000000000000e+00   1.0000000000000000e-10
  5.0000000000000001e-03   1.0020831156344616e-10
  1.0000000000000000e-02   1.0046011923273578e-10
  1.4999999999999999e-02   1.0067902562614400e-10
  2.0000000000000000e-02   1.0092958604348355e-10
  2.5000000000000001e-02   1.0115168060167655e-10
  2.9999999999999999e-02   1.0140625510440858e-10
  3.5000000000000003e-02   1.0163767778992726e-10
  4.0000000000000001e-02   1.0189429670745512e-10
  4.4999999999999998e-02   1.0213578708285533e-10
  5.0000000000000003e-02   1.0239474630418725e-10
  5.5000000000000000e-02   1.0264586283898916e-10
  5.9999999999999998e-02   1.0290800625011403e-10
  6.5000000000000002e-02   1.0316766524583329e-10
  7.0000000000000007e-02   1.0343391730357528e-10
  7.4999999999999997e-02   1.0370115036908201e-10
  8.0000000000000002e-02   1.0397240354925751e-10
  8.5000000000000006e-02   1.0424658229275989e-10
  8.9999999999999997e-02   1.0452353300665580e-10
  9.5000000000000001e-02   1.0480425616890285e-10
  1.0000000000000001e-01   1.0508727709964731e-10
  1.0500000000000000e-01   1.0537423539976537e-10
  1.1000000000000000e-01   1.0566342666456100e-10
  1.1500000000000000e-01   1.0595640758503635e-10
  1.2000000000000000e-01   1.0625176189792334e-10
  1.2500000000000000e-01   1.0655067877526901e-10
  1.3000000000000000e-01   1.0685216830243705e-10
  1.3500000000000001e-01   1.0715699416581419e-10
  1.4000000000000001e-01   1.0746454091145589e-10
  1.4499999999999999e-01   1.0777520811415190e-10
  1.4999999999999999e-01   1.0808865407211221e-10
  1.5500000000000000e-01   1.0840502857420883e-10
  1.6000000000000000e-01   1.0872417215710206e-10
  1.6500000000000001e-01   1.0904609281625381e-10
  1.7000000000000001e-01   1.0937073428967014e-10
  1.7500000000000002e-01   1.0969803126879795e-10
  1.7999999999999999e-01   1.1002796472798285e-10
  1.8500000000000000e-01   1.1036043098788846e-10
  1.9000000000000000e-01   1.1069540697121152e-10
  1.9500000000000001e-01   1.1103277261520988e-10
  2.0000000000000001e-01   1.1137248698168412e-10
  2.0500000000000002e-01   1.1171442970436211e-10
  2.0999999999999999e-01   1.1205854175228533e-10
  2.1500000000000000e-01   1.1240470764099013e-10
  2.2000000000000000e-01   1.1275284941280659e-10
  2.2500000000000001e-01   1.1310285113606686e-10
  2.3000000000000001e-01   1.1345461343497669e-10
  2.3500000000000001e-01   1.1380801320141905e-10
  2.3999999999999999e-01   1.1416293091331913e-10
  2.4500000000000000e-01   1.1451923445517901e-10
  2.5000000000000000e-01   1.1487678911023524e-10
  2.5500000000000000e-01   1.1523545436168779e-10
  2.6000000000000001e-01   1.1559508367095934e-10
  2.6500000000000001e-01   1.1595552672419324e-10
  2.7000000000000002e-01   1.1631662476344528e-10
  2.7500000000000002e-01   1.1667821483083698e-10
  2.8000000000000003e-01   1.1704012479440209e-10
  2.8500000000000003e-01   1.1740217807255884e-10
  2.8999999999999998e-01   1.1776419000342685e-10
  2.9499999999999998e-01   1.1812597181351111e-10
  2.9999999999999999e-01   1.1848732813784834e-10
  3.0499999999999999e-01   1.1884805947600037e-10
  3.1000000000000000e-01   1.1920796045280684e-10
  3.1500000000000000e-01   1.1956682101408241e-10
  3.2000000000000001e-01   1.1992442550499012e-10
  3.2500000000000001e-01   1.2028055337260436e-10
  3.3000000000000002e-01   1.2063497912426482e-10
  3.3500000000000002e-01   1.2098747293839696e-10
  3.4000000000000002e-01   1.2133780112768459e-10
  3.4500000000000003e-01   1.2168572657396349e-10
  3.5000000000000003e-01   1.2203100922467849e-10
  3.5499999999999998e-01   1.2237340629722396e-10
  3.5999999999999999e-01   1.2271267270024789e-10
  3.6499999999999999e-01   1.2304856122353467e-10
  3.7000000000000000e-01   1.2338082304678475e-10
  3.7500000000000000e-01   1.2370920812431076e-10
  3.8000000000000000e-01   1.2403346583610306e-10
  3.8500000000000001e-01   1.2435334552496454e-10
  3.9000000000000001e-01   1.2466859715468601e-10
  3.9500000000000002e-01   1.2497897184340534e-10
  4.0000000000000002e-01   1.2528422243001602e-10
  4.0500000000000003e-01   1.2558410397122547e-10
  4.1000000000000003e-01   1.2587837427545472e-10
  4.1500000000000004e-01   1.2616679444563930e-10
  4.1999999999999998e-01   1.2644912946865628e-10
  4.2499999999999999e-01   1.2672514883293764e-10
  4.2999999999999999e-01   1.2699462715579640e-10
  4.3500000000000000e-01   1.2725734480545172e-10
  4.4000000000000000e-01   1.2751308848965378e-10
  4.4500000000000001e-01   1.2776165181809637e-10
  4.5000000000000001e-01   1.2800283582907807e-10
  4.5500000000000002e-01   1.2823644950363698e-10
  4.6000000000000002e-01   1.2846231026519875e-10
  4.6500000000000002e-01   1.2868024447911079e-10
  4.7000000000000003e-01   1.2889008794049535e-10
  4.7500000000000003e-01   1.2909168634786126e-10
  4.7999999999999998e-01   1.2928489574606463e-10
  4.8499999999999999e-01   1.2946958293319226e-10
  4.8999999999999999e-01   1.2964562582442094e-10
  4.9500000000000000e-01   1.2981291377549600e-10
  5.0000000000000000e-01   1.2997134786907056e-10
  5.0500000000000000e-01   1.3012084116917273e-10
  5.1000000000000001e-01   1.3026131894629935e-10
  5.1500000000000001e-01   1.3039271887236629e-10
  5.2000000000000002e-01   1.3051499118227314e-10
  5.2500000000000002e-01   1.3062809879708881e-10
  5.3000000000000003e-01   1.3073201740543531e-10
  5.3500000000000003e-01   1.3082673550120400e-10
  5.4000000000000004e-01   1.3091225437905245e-10
  5.4500000000000004e-01   1.3098858809038452e-10
  5.5000000000000004e-01   1.3105576336359978e-10
  5.5500000000000005e-01   1.3111381949120519e-10
  5.6000000000000005e-01   1.3116280818531623e-10
  5.6500000000000006e-01   1.3120279340142848e-10
  5.7000000000000006e-01   1.3123385112993870e-10
  5.7500000000000007e-01   1.3125606915501266e-10
  5.7999999999999996e-01   1.3126954678153659e-10
  5.8499999999999996e-01   1.3127439453205805e-10
  5.8999999999999997e-01   1.3127073381661289e-10
  5.9499999999999997e-01   1.3125869657866631e-10
  5.9999999999999998e-01   1.3123842492009383e-10
  6.0499999999999998e-01   1.3121007070746908e-10
  6.0999999999999999e-01   1.3117379516118079e-10
  6.1499999999999999e-01   1.3112976842852739e-10
  6.2000000000000000e-01   1.3107816914190474e-10
  6.2500000000000000e-01   1.3101918396360449e-10
  6.3000000000000000e-01   1.3095300711922235e-10
  6.3500000000000001e-01   1.3087983992210329e-10
  6.4000000000000001e-01   1.3079989029135729e-10
  6.4500000000000002e-01   1.3071337226582554e-10
  6.5000000000000002e-01   1.3062050551596793e-10
  6.5500000000000003e-01   1.3052151485524195e-10
  6.6000000000000003e-01   1.3041662975221940e-10
  6.6500000000000004e-01   1.3030608384458644e-10
  6.7000000000000004e-01   1.3019011445624229e-10
  6.7500000000000004e-01   1.3006896211886992e-10
  6.8000000000000005e-01   1.2994287009947468e-10
  6.8500000000000005e-01   1.2981208393540839e-10
  6.9000000000000006e-01   1.2967685097825635e-10
  6.9500000000000006e-01   1.2953741994773496e-10
  7.0000000000000007e-01   1.2939404049648348e-10
  7.0499999999999996e-01   1.2924696278642267e-10
  7.0999999999999996e-01   1.2909643707723187e-10
  7.1499999999999997e-01   1.2894271332746670e-10
  7.1999999999999997e-01   1.2878604080887355e-10
  7.2499999999999998e-01   1.2862666773446984e-10
  7.2999999999999998e-01   1.2846484090094880e-10
  7.3499999999999999e-01   1.2830080534587392e-10
  7.3999999999999999e-01   1.2813480402000025e-10
  7.4500000000000000e-01   1.2796707747491152e-10
  7.5000000000000000e-01   1.2779786356602566e-10
  7.5500000000000000e-01   1.2762739717095351e-10
  7.6000000000000001e-01   1.2745590992314489e-10
  7.6500000000000001e-01   1.2728362996076702e-10
  7.7000000000000002e-01   1.2711078169075048e-10
  7.7500000000000002e-01   1.2693758556793603e-10
  7.8000000000000003e-01   1.2676425788920337e-10
  7.8500000000000003e-01   1.2659101060240850e-10
  7.9000000000000004e-01   1.2641805112988145e-10
  7.9500000000000004e-01   1.2624558220616998e-10
  8.0000000000000004e-01   1.2607380172968639e-10
  8.0500000000000005e-01   1.2590290262787923e-10
  8.1000000000000005e-01   1.2573307273557471e-10
  8.1500000000000006e-01   1.2556449468611884e-10
  8.2000000000000006e-01   1.2539734581496924e-10
  8.2500000000000007e-01   1.2523179807536467e-10
  8.3000000000000007e-01   1.2506801796568580e-10
  8.3499999999999996e-01   1.2490616646809384e-10
  8.3999999999999997e-01   1.2474639899801128e-10
  8.4499999999999997e-01   1.2458886536399852e-10
  8.4999999999999998e-01   1.2443370973758322e-10
  8.5499999999999998e-01   1.2428107063260097e-10
  8.5999999999999999e-01   1.2413108089362727e-10
  8.6499999999999999e-01   1.2398386769308705e-10
  8.7000000000000000e-01   1.2383955253663599e-10
  8.7500000000000000e-01   1.2369825127640884e-10
  8.8000000000000000e-01   1.2356007413172835e-10
  8.8500000000000001e-01   1.2342512571686636e-10
  8.9000000000000001e-01   1.2329350507545528e-10
  8.9500000000000002e-01   1.2316530572115286e-10
  9.0000000000000002e-01   1.2304061568418083e-10
  9.0500000000000003e-01   1.2291951756336681e-10
  9.1000000000000003e-01   1.2280208858334170e-10
  9.1500000000000004e-01   1.2268840065654961e-10
  9.2000000000000004e-01   1.2257852044973766e-10
  9.2500000000000004e-01   1.2247250945460713e-10
  9.3000000000000005e-01   1.2237042406230249e-10
  9.3500000000000005e-01   1.2227231564143742e-10
  9.4000000000000006e-01   1.2217823061935555e-10
  9.4500000000000006e-01   1.2208821056634542e-10
  9.5000000000000007e-01   1.2200229228253796e-10
  9.5500000000000007e-01   1.2192050788722986e-10
  9.5999999999999996e-01   1.2184288491038736e-10
  9.6499999999999997e-01   1.2176944638609680e-10
  9.6999999999999997e-01   1.2170021094773483e-10
  9.7499999999999998e-01   1.2163519292464179e-10
  9.7999999999999998e-01   1.2157440244009149e-10
  9.8499999999999999e-01   1.2151784551035607e-10
  9.8999999999999999e-01   1.2146552414468332e-10
  9.9500000000000000e-01   1.2141743644600219e-10
  1.0000000000000000e+00   1.2137357671219825e-10
  1.0050000000000001e+00   1.2133393553779309e-10
  1.0100000000000000e+00   1.2129849991588715e-10
  1.0150000000000001e+00   1.2126725334021897e-10
  1.0200000000000000e+00   1.2124017590721126e-10
  1.0249999999999999e+00   1.2121724441787573e-10
  1.0300000000000000e+00   1.2119843247945837e-10
  1.0349999999999999e+00   1.2118371060671402e-10
  1.0400000000000000e+00   1.2117304632270580e-10
  1.0449999999999999e+00   1.2116640425903523e-10
  1.0500000000000000e+00   1.2116374625540869e-10
  1.0549999999999999e+00   1.2116503145846332e-10
  1.0600000000000001e+00   1.2117021641976790e-10
  1.0649999999999999e+00   1.2117925519293153e-10
  1.0700000000000001e+00   1.2119209942974933e-10
  1.0750000000000000e+00   1.2120869847532403e-10
  1.0800000000000001e+00   1.2122899946210631e-10
  1.0850000000000000e+00   1.2125294740280121e-10
  1.0900000000000001e+00   1.2128048528209173e-10
  1.0950000000000000e+00   1.2131155414713883e-10
  1.1000000000000001e+00   1.2134609319681554e-10
  1.1050000000000000e+00   1.2138403986964234e-10
  1.1100000000000001e+00   1.2142532993038923e-10
  1.1150000000000000e+00   1.2146989755531742e-10
  1.1200000000000001e+00   1.2151767541603317e-10
  1.1250000000000000e+00   1.2156859476193313e-10
  1.1300000000000001e+00   1.2162258550121934e-10
  1.1350000000000000e+00   1.2167957628046794e-10
  1.1400000000000001e+00   1.2173949456273786e-10
  1.1450000000000000e+00   1.2180226670420562e-10
  1.1500000000000001e+00   1.2186781802931994e-10
  1.1550000000000000e+00   1.2193607290446431e-10
  1.1599999999999999e+00   1.2200695481012517e-10
  1.1650000000000000e+00   1.2208038641156041e-10
  1.1699999999999999e+00   1.2215628962796527e-10
  1.1750000000000000e+00   1.2223458570013684e-10
  1.1799999999999999e+00   1.2231519525663609e-10
  1.1850000000000001e+00   1.2239803837845209e-10
  1.1899999999999999e+00   1.2248303466216964e-10
  1.1950000000000001e+00   1.2257010328164811e-10
  1.2000000000000000e+00   1.2265916304821549e-10
  1.2050000000000001e+00   1.2275013246938420e-10
  1.2100000000000000e+00   1.2284292980610094e-10
  1.2150000000000001e+00   1.2293747312853211e-10
  1.2200000000000000e+00   1.2303368037040351e-10
  1.2250000000000001e+00   1.2313146938189534e-10
  1.2300000000000000e+00   1.2323075798111336e-10
  1.2350000000000001e+00   1.2333146400414008e-10
  1.2400000000000000e+00   1.2343350535368323e-10
  1.2450000000000001e+00   1.2353680004633412e-10
  1.2500000000000000e+00   1.2364126625844622e-10
  1.2550000000000001e+00   1.2374682237065376e-10
  1.2600000000000000e+00   1.2385338701103802e-10
  1.2650000000000001e+00   1.2396087909696216e-10
  1.2700000000000000e+00   1.2406921787558624e-10
  1.2750000000000001e+00   1.2417832296307866e-10
  1.2800000000000000e+00   1.2428811438254120e-10
  1.2849999999999999e+00   1.2439851260066198e-10
  1.2900000000000000e+00   1.2450943856311426e-10
  1.2949999999999999e+00   1.2462081372871596e-10
  1.3000000000000000e+00   1.2473256010236895e-10
  1.3049999999999999e+00   1.2484460026679353e-10
  1.3100000000000001e+00   1.2495685741307468e-10
  1.3149999999999999e+00   1.2506925537003961e-10
  1.3200000000000001e+00   1.2518171863248248e-10
  1.3250000000000000e+00   1.2529417238825285e-10
  1.3300000000000001e+00   1.2540654254423003e-10
  1.3350000000000000e+00   1.2551875575119434e-10
  1.3400000000000001e+00   1.2563073942762046e-10
  1.3450000000000000e+00   1.2574242178240449e-10
  1.3500000000000001e+00   1.2585373183654807e-10
  1.3550000000000000e+00   1.2596459944381323e-10
  1.3600000000000001e+00   1.2607495531037162e-10
  1.3650000000000000e+00   1.2618473101345830e-10
  1.3700000000000001e+00   1.2629385901905937e-10
  1.3750000000000000e+00   1.2640227269863958e-10
  1.3800000000000001e+00   1.2650990634494064e-10
  1.3850000000000000e+00   1.2661669518685742e-10
  1.3900000000000001e+00   1.2672257540342074e-10
  1.3950000000000000e+00   1.2682748413689646e-10
  1.4000000000000001e+00   1.2693135950502611e-10
  1.4050000000000000e+00   1.2703414061242396e-10
  1.4099999999999999e+00   1.2713576756115039e-10
  1.4150000000000000e+00   1.2723618146048059e-10
  1.4199999999999999e+00   1.2733532443588495e-10
  1.4250000000000000e+00   1.2743313963724532e-10
  1.4299999999999999e+00   1.2752957124631644e-10
  1.4350000000000001e+00   1.2762456448346225e-10
  1.4399999999999999e+00   1.2771806561367626e-10
  1.4450000000000001e+00   1.2781002195190973e-10
  1.4500000000000000e+00   1.2790038186772505e-10
  1.4550000000000001e+00   1.2798909478929189e-10
  1.4600000000000000e+00   1.2807611120674554e-10
  1.4650000000000001e+00   1.2816138267492513e-10
  1.4700000000000000e+00   1.2824486181551165e-10
  1.4750000000000001e+00   1.2832650231857922e-10
  1.4800000000000000e+00   1.2840625894358633e-10
  1.4850000000000001e+00   1.2848408751981469e-10
  1.4900000000000000e+00   1.2855994494628272e-10
  1.4950000000000001e+00   1.2863378919114459e-10
  1.5000000000000000e+00   1.2870557929059835e-10
  1.5050000000000001e+00   1.2877527534731400e-10
  1.5100000000000000e+00   1.2884283852840762e-10
  1.5150000000000001e+00   1.2890823106296800e-10
  1.5200000000000000e+00   1.2897141623916406e-10
  1.5250000000000001e+00   1.2903235840093935e-10
  1.5300000000000000e+00   1.2909102294432079e-10
  1.5350000000000001e+00   1.2914737631334633e-10
  1.5400000000000000e+00   1.2920138599564049e-10
  1.5449999999999999e+00   1.2925302051764221e-10
  1.5500000000000000e+00   1.2930224943950906e-10
  1.5549999999999999e+00   1.2934904334970851e-10
  1.5600000000000001e+00   1.2939337385931454e-10
  1.5649999999999999e+00   1.2943521359602147e-10
  1.5700000000000001e+00   1.2947453619789236e-10
  1.5750000000000000e+00   1.2951131630685597e-10
  1.5800000000000001e+00   1.2954552956196356e-10
  1.5850000000000000e+00   1.2957715259242426e-10
  1.5900000000000001e+00   1.2960616301042637e-10
  1.5950000000000000e+00   1.2963253940376482e-10
  1.6000000000000001e+00   1.2965626132827849e-10
  1.6050000000000000e+00   1.2967730930012018e-10
  1.6100000000000001e+00   1.2969566478786139e-10
  1.6150000000000000e+00   1.2971131020445157e-10
  1.6200000000000001e+00   1.2972422889903609e-10
  1.6250000000000000e+00   1.2973440514865103e-10
  1.6300000000000001e+00   1.2974182414979760e-10
  1.6350000000000000e+00   1.2974647200991272e-10
  1.6400000000000001e+00   1.2974833573874277e-10
  1.6450000000000000e+00   1.2974740323962727e-10
  1.6500000000000001e+00   1.2974366330070795e-10
  1.6550000000000000e+00   1.2973710558606324e-10
  1.6600000000000001e+00   1.2972772062678435e-10
  1.6650000000000000e+00   1.2971549981199385e-10
  1.6699999999999999e+00   1.2970043537981864e-10
  1.6750000000000000e+00   1.2968252040832095e-10
  1.6799999999999999e+00   1.2966174880639627e-10
  1.6850000000000001e+00   1.2963811530464124e-10
  1.6899999999999999e+00   1.2961161544620111e-10
  1.6950000000000001e+00   1.2958224557759626e-10
  1.7000000000000000e+00   1.2955000283953845e-10
  1.7050000000000001e+00   1.2951488515773639e-10
  1.7100000000000000e+00   1.2947689123369742e-10
  1.7150000000000001e+00   1.2943602053552732e-10
  1.7200000000000000e+00   1.2939227328873170e-10
  1.7250000000000001e+00   1.2934565046702298e-10
  1.7300000000000000e+00   1.2929615378313193e-10
  1.7350000000000001e+00   1.2924378567963019e-10
  1.7400000000000000e+00   1.2918854931976215e-10
  1.7450000000000001e+00   1.2913044857828835e-10
  1.7500000000000000e+00   1.2906948803234278e-10
  1.7550000000000001e+00   1.2900567295230213e-10
  1.7600000000000000e+00   1.2893900929266926e-10
  1.7650000000000001e+00   1.2886950368297113e-10
  1.7700000000000000e+00   1.2879716341866788e-10
  1.7750000000000001e+00   1.2872199645207844e-10
  1.7800000000000000e+00   1.2864401138331387e-10
  1.7850000000000001e+00   1.2856321745122548e-10
  1.7900000000000000e+00   1.2847962452436077e-10
  1.7949999999999999e+00   1.2839324309192717e-10
  1.8000000000000000e+00   1.2830408425476381e-10
  1.8049999999999999e+00   1.2821215971631639e-10
  1.8100000000000001e+00   1.2811748177361571e-10
  1.8149999999999999e+00   1.2802006330825481e-10
  1.8200000000000001e+00   1.2791991777736599e-10
  1.8250000000000000e+00   1.2781705920459037e-10
  1.8300000000000001e+00   1.2771150217104308e-10
  1.8350000000000000e+00   1.2760326180626478e-10
  1.8400000000000001e+00   1.2749235377916316e-10
  1.8450000000000000e+00   1.2737879428893661e-10
  1.8500000000000001e+00   1.2726260005597848e-10
  1.8550000000000000e+00   1.2714378831276084e-10
  1.8600000000000001e+00   1.2702237679469200e-10
  1.8650000000000000e+00   1.2689838373094523e-10
  1.8700000000000001e+00   1.2677182783525764e-10
  1.8750000000000000e+00   1.2664272829669248e-10
  1.8800000000000001e+00   1.2651110477036633e-10
  1.8850000000000000e+00   1.2637697736813344e-10
  1.8900000000000001e+00   1.2624036664922885e-10
  1.8950000000000000e+00   1.2610129361086197e-10
  1.9000000000000001e+00   1.2595977967876555e-10
  1.9050000000000000e+00   1.2581584669768753e-10
  1.9100000000000001e+00   1.2566951692183277e-10
  1.9150000000000000e+00   1.2552081300524473e-10
  1.9199999999999999e+00   1.2536975799213021e-10
  1.9250000000000000e+00   1.2521637530711956e-10
  1.9299999999999999e+00   1.2506068874546666e-10
  1.9350000000000001e+00   1.2490272246318018e-10
  1.9399999999999999e+00   1.2474250096708958e-10
  1.9450000000000001e+00   1.2458004910484121e-10
  1.9500000000000000e+00   1.2441539205482377e-10
  1.9550000000000001e+00   1.2424855531602377e-10
  1.9600000000000000e+00   1.2407956469780613e-10
  1.9650000000000001e+00   1.2390844630962333e-10
  1.9700000000000000e+00   1.2373522655065036e-10
  1.9750000000000001e+00   1.2355993209934379e-10
  1.9800000000000000e+00   1.2338258990292878e-10
  1.9850000000000001e+00   1.2320322716680971e-10
