# First column is time, second column is the perturbation of detonation velocity.
  0.0000000000000000e+00   1.0000000000000000e-10
  5.0000000000000001e-03   1.0025507888583689e-10
  1.0000000000000000e-02   1.0042619613572152e-10
  1.4999999999999999e-02   1.0063145613151729e-10
  2.0000000000000000e-02   1.0088810315538484e-10
  2.5000000000000001e-02   1.0117094308568547e-10
  2.9999999999999999e-02   1.0144698877645495e-10
  3.5000000000000003e-02   1.0169606167789266e-10
  4.0000000000000001e-02   1.0191838432948061e-10
  4.4999999999999998e-02   1.0213050534243494e-10
  5.0000000000000003e-02   1.0235404134943429e-10
  5.5000000000000000e-02   1.0260379231038801e-10
  5.9999999999999998e-02   1.0288102610470911e-10
  6.5000000000000002e-02   1.0317445661339448e-10
  7.0000000000000007e-02   1.0346739146289389e-10
  7.4999999999999997e-02   1.0374671682512054e-10
  8.0000000000000002e-02   1.0400903316082109e-10
  8.5000000000000006e-02   1.0426124017700752e-10
  8.9999999999999997e-02   1.0451594089961476e-10
  9.5000000000000001e-02   1.0478455386512518e-10
  1.0000000000000001e-01   1.0507181362009495e-10
  1.0500000000000000e-01   1.0537421797179778e-10
  1.1000000000000000e-01   1.0568272658463161e-10
  1.1500000000000000e-01   1.0598787723282685e-10
  1.2000000000000000e-01   1.0628450655070887e-10
  1.2500000000000000e-01   1.0657378890688955e-10
  1.3000000000000000e-01   1.0686190201116409e-10
  1.3500000000000001e-01   1.0715637661875141e-10
  1.4000000000000001e-01   1.0746220761412974e-10
  1.4499999999999999e-01   1.0777967659211874e-10
  1.4999999999999999e-01   1.0810475993427855e-10
  1.5500000000000000e-01   1.0843161517843873e-10
  1.6000000000000000e-01   1.0875567095576936e-10
  1.6500000000000001e-01   1.0907572141347263e-10
  1.7000000000000001e-01   1.0939410686933795e-10
  1.7500000000000002e-01   1.0971511691145809e-10
  1.7999999999999999e-01   1.1004261490761691e-10
  1.8500000000000000e-01   1.1037815002827181e-10
  1.9000000000000000e-01   1.1072043260225907e-10
  1.9500000000000001e-01   1.1106627139606772e-10
  2.0000000000000001e-01   1.1141233710248649e-10
  2.0500000000000002e-01   1.1175678288857563e-10
  2.0999999999999999e-01   1.1209993784128597e-10
  2.1500000000000000e-01   1.1244383996521090e-10
  2.2000000000000000e-01   1.1279097658396843e-10
  2.2500000000000001e-01   1.1314294842816821e-10
  2.3000000000000001e-01   1.1349972692443637e-10
  2.3500000000000001e-01   1.1385980196656057e-10
  2.3999999999999999e-01   1.1422104215671193e-10
  2.4500000000000000e-01   1.1458175827256723e-10
  2.5000000000000000e-01   1.1494142030031543e-10
  2.5500000000000000e-01   1.1530071445262167e-10
  2.6000000000000001e-01   1.1566098984541515e-10
  2.6500000000000001e-01   1.1602344036064614e-10
  2.7000000000000002e-01   1.1638845736733899e-10
  2.7500000000000002e-01   1.1675545311007478e-10
  2.8000000000000003e-01   1.1712318652523627e-10
  2.8500000000000003e-01   1.1749037111412659e-10
  2.8999999999999998e-01   1.1785623105393522e-10
  2.9499999999999998e-01   1.1822073668893936e-10
  2.9999999999999999e-01   1.1858444075811925e-10
  3.0499999999999999e-01   1.1894804337485845e-10
  3.1000000000000000e-01   1.1931193277651035e-10
  3.1500000000000000e-01   1.1967593171604549e-10
  3.2000000000000001e-01   1.2003935060923629e-10
  3.2500000000000001e-01   1.2040128499610098e-10
  3.3000000000000002e-01   1.2076098148279629e-10
  3.3500000000000002e-01   1.2111808323912742e-10
  3.4000000000000002e-01   1.2147264797797792e-10
  3.4500000000000003e-01   1.2182495647373631e-10
  3.5000000000000003e-01   1.2217523112266277e-10
  3.5499999999999998e-01   1.2252341445176573e-10
  3.5999999999999999e-01   1.2286911019275971e-10
  3.6499999999999999e-01   1.2321169709554075e-10
  3.7000000000000000e-01   1.2355053908585608e-10
  3.7500000000000000e-01   1.2388517677764031e-10
  3.8000000000000000e-01   1.2421540815201912e-10
  3.8500000000000001e-01   1.2454123189821556e-10
  3.9000000000000001e-01   1.2486269794745745e-10
  3.9500000000000002e-01   1.2517975037092267e-10
  4.0000000000000002e-01   1.2549214155122245e-10
  4.0500000000000003e-01   1.2579945200131275e-10
  4.1000000000000003e-01   1.2610119392592984e-10
  4.1500000000000004e-01   1.2639693780563691e-10
  4.1999999999999998e-01   1.2668639706109397e-10
  4.2499999999999999e-01   1.2696943423265341e-10
  4.2999999999999999e-01   1.2724599521434302e-10
  4.3500000000000000e-01   1.2751601286631894e-10
  4.4000000000000000e-01   1.2777933158127378e-10
  4.4500000000000001e-01   1.2803568792428081e-10
  4.5000000000000001e-01   1.2828475058771765e-10
  4.5500000000000002e-01   1.2852619318157184e-10
  4.6000000000000002e-01   1.2875976025345646e-10
  4.6500000000000002e-01   1.2898529493383412e-10
  4.7000000000000003e-01   1.2920271928314943e-10
  4.7500000000000003e-01   1.2941198283492560e-10
  4.7999999999999998e-01   1.2961300870692971e-10
  4.8499999999999999e-01   1.2980566437380395e-10
  4.8999999999999999e-01   1.2998976879138298e-10
  4.9500000000000000e-01   1.3016512819801515e-10
  5.0000000000000000e-01   1.3033157963205643e-10
  5.0500000000000000e-01   1.3048901984839931e-10
  5.1000000000000001e-01   1.3063740715377834e-10
  5.1500000000000001e-01   1.3077673852743466e-10
  5.2000000000000002e-01   1.3090701631988144e-10
  5.2500000000000002e-01   1.3102822227661171e-10
  5.3000000000000003e-01   1.3114031090722663e-10
  5.3500000000000003e-01   1.3124322322721794e-10
  5.4000000000000004e-01   1.3133691169519804e-10
  5.4500000000000004e-01   1.3142136270421176e-10
  5.5000000000000004e-01   1.3149660579161441e-10
  5.5500000000000005e-01   1.3156270656318957e-10
  5.6000000000000005e-01   1.3161974871952449e-10
  5.6500000000000006e-01   1.3166781531111641e-10
  5.7000000000000006e-01   1.3170697852174878e-10
  5.7500000000000007e-01   1.3173730195258752e-10
  5.7999999999999996e-01   1.3175885271653611e-10
  5.8499999999999996e-01   1.3177171610512872e-10
  5.8999999999999997e-01   1.3177600515715537e-10
  5.9499999999999997e-01   1.3177186086825565e-10
  5.9999999999999998e-01   1.3175944389494745e-10
  6.0499999999999998e-01   1.3173892269586782e-10
  6.0999999999999999e-01   1.3171046421686350e-10
  6.1499999999999999e-01   1.3167423123484153e-10
  6.2000000000000000e-01   1.3163038668495905e-10
  6.2500000000000000e-01   1.3157910179288228e-10
  6.3000000000000000e-01   1.3152056331637239e-10
  6.3500000000000001e-01   1.3145497618449961e-10
  6.4000000000000001e-01   1.3138256052695135e-10
  6.4500000000000002e-01   1.3130354497057726e-10
  6.5000000000000002e-01   1.3121815969823679e-10
  6.5500000000000003e-01   1.3112663246582486e-10
  6.6000000000000003e-01   1.3102918893110346e-10
  6.6500000000000004e-01   1.3092605635540056e-10
  6.7000000000000004e-01   1.3081746818278557e-10
  6.7500000000000004e-01   1.3070366686356659e-10
  6.8000000000000005e-01   1.3058490347057514e-10
  6.8500000000000005e-01   1.3046143441785548e-10
  6.9000000000000006e-01   1.3033351699295365e-10
  6.9500000000000006e-01   1.3020140580541398e-10
  7.0000000000000007e-01   1.3006535156084051e-10
  7.0499999999999996e-01   1.2992560226247986e-10
  7.0999999999999996e-01   1.2978240573932310e-10
  7.1499999999999997e-01   1.2963601188343286e-10
  7.1999999999999997e-01   1.2948667332365837e-10
  7.2499999999999998e-01   1.2933464419615381e-10
  7.2999999999999998e-01   1.2918017766320951e-10
  7.3499999999999999e-01   1.2902352338394894e-10
  7.3999999999999999e-01   1.2886492603219327e-10
  7.4500000000000000e-01   1.2870462531955223e-10
  7.5000000000000000e-01   1.2854285719290720e-10
  7.5500000000000000e-01   1.2837985534272140e-10
  7.6000000000000001e-01   1.2821585211514828e-10
  7.6500000000000001e-01   1.2805107833046336e-10
  7.7000000000000002e-01   1.2788576211700703e-10
  7.7500000000000002e-01   1.2772012735044851e-10
  7.8000000000000003e-01   1.2755439242005358e-10
  7.8500000000000003e-01   1.2738876980273644e-10
  7.9000000000000004e-01   1.2722346647510760e-10
  7.9500000000000004e-01   1.2705868478101438e-10
  8.0000000000000004e-01   1.2689462319683644e-10
  8.0500000000000005e-01   1.2673147655772150e-10
  8.1000000000000005e-01   1.2656943563037816e-10
  8.1500000000000006e-01   1.2640868625888653e-10
  8.2000000000000006e-01   1.2624940849862326e-10
  8.2500000000000007e-01   1.2609177611458490e-10
  8.3000000000000007e-01   1.2593595660018904e-10
  8.3499999999999996e-01   1.2578211160132850e-10
  8.3999999999999997e-01   1.2563039744822808e-10
  8.4499999999999997e-01   1.2548096548409822e-10
  8.4999999999999998e-01   1.2533396202151349e-10
  8.5499999999999998e-01   1.2518952796635517e-10
  8.5999999999999999e-01   1.2504779831385916e-10
  8.6499999999999999e-01   1.2490890176557395e-10
  8.7000000000000000e-01   1.2477296063215454e-10
  8.7500000000000000e-01   1.2464009103143928e-10
  8.8000000000000000e-01   1.2451040324944559e-10
  8.8500000000000001e-01   1.2438400207222268e-10
  8.9000000000000001e-01   1.2426098693869522e-10
  8.9500000000000002e-01   1.2414145187579581e-10
  9.0000000000000002e-01   1.2402548529417464e-10
  9.0500000000000003e-01   1.2391316978702880e-10
  9.1000000000000003e-01   1.2380458206052431e-10
  9.1500000000000004e-01   1.2369979304804335e-10
  9.2000000000000004e-01   1.2359886816707666e-10
  9.2500000000000004e-01   1.2350186761516963e-10
  9.3000000000000005e-01   1.2340884659710563e-10
  9.3500000000000005e-01   1.2331985542468489e-10
  9.4000000000000006e-01   1.2323493950242173e-10
  9.4500000000000006e-01   1.2315413926898210e-10
  9.5000000000000007e-01   1.2307749017912153e-10
  9.5500000000000007e-01   1.2300502278179777e-10
  9.5999999999999996e-01   1.2293676289662426e-10
  9.6499999999999997e-01   1.2287273184225985e-10
  9.6999999999999997e-01   1.2281294665016406e-10
  9.7499999999999998e-01   1.2275742021204329e-10
  9.7999999999999998e-01   1.2270616134781097e-10
  9.8499999999999999e-01   1.2265917482121304e-10
  9.8999999999999999e-01   1.2261646135231422e-10
  9.9500000000000000e-01   1.2257801767110346e-10
  1.0000000000000000e+00   1.2254383663021274e-10
  1.0050000000000001e+00   1.2251390736269470e-10
  1.0100000000000000e+00   1.2248821544951540e-10
  1.0150000000000001e+00   1.2246674306018140e-10
  1.0200000000000000e+00   1.2244946904699159e-10
  1.0249999999999999e+00   1.2243636899820761e-10
  1.0300000000000000e+00   1.2242741527480214e-10
  1.0349999999999999e+00   1.2242257706044680e-10
  1.0400000000000000e+00   1.2242182044426042e-10
  1.0449999999999999e+00   1.2242510853734374e-10
  1.0500000000000000e+00   1.2243240160740185e-10
  1.0549999999999999e+00   1.2244365720883915e-10
  1.0600000000000001e+00   1.2245883029085156e-10
  1.0649999999999999e+00   1.2247787327925553e-10
  1.0700000000000001e+00   1.2250073614157191e-10
  1.0750000000000000e+00   1.2252736645232775e-10
  1.0800000000000001e+00   1.2255770947369615e-10
  1.0850000000000000e+00   1.2259170825744284e-10
  1.0900000000000001e+00   1.2262930376306110e-10
  1.0950000000000000e+00   1.2267043497964011e-10
  1.1000000000000001e+00   1.2271503903859610e-10
  1.1050000000000000e+00   1.2276305131027946e-10
  1.1100000000000001e+00   1.2281440548598912e-10
  1.1150000000000000e+00   1.2286903365355604e-10
  1.1200000000000001e+00   1.2292686637633771e-10
  1.1250000000000000e+00   1.2298783278195366e-10
  1.1300000000000001e+00   1.2305186066074088e-10
  1.1350000000000000e+00   1.2311887656819931e-10
  1.1400000000000001e+00   1.2318880592338838e-10
  1.1450000000000000e+00   1.2326157309708259e-10
  1.1500000000000001e+00   1.2333710148810543e-10
  1.1550000000000000e+00   1.2341531359105154e-10
  1.1599999999999999e+00   1.2349613106120153e-10
  1.1650000000000000e+00   1.2357947478183146e-10
  1.1699999999999999e+00   1.2366526493600801e-10
  1.1750000000000000e+00   1.2375342108119594e-10
  1.1799999999999999e+00   1.2384386222253754e-10
  1.1850000000000001e+00   1.2393650688058076e-10
  1.1899999999999999e+00   1.2403127315129918e-10
  1.1950000000000001e+00   1.2412807875920669e-10
  1.2000000000000000e+00   1.2422684110665592e-10
  1.2050000000000001e+00   1.2432747732298170e-10
  1.2100000000000000e+00   1.2442990431592918e-10
  1.2150000000000001e+00   1.2453403882560796e-10
  1.2200000000000000e+00   1.2463979747923911e-10
  1.2250000000000001e+00   1.2474709684415636e-10
  1.2300000000000000e+00   1.2485585347713952e-10
  1.2350000000000001e+00   1.2496598396972048e-10
  1.2400000000000000e+00   1.2507740499070956e-10
  1.2450000000000001e+00   1.2519003332804191e-10
  1.2500000000000000e+00   1.2530378593178487e-10
  1.2550000000000001e+00   1.2541857995903871e-10
  1.2600000000000000e+00   1.2553433282012711e-10
  1.2650000000000001e+00   1.2565096222459864e-10
  1.2700000000000000e+00   1.2576838622550542e-10
  1.2750000000000001e+00   1.2588652326111637e-10
  1.2800000000000000e+00   1.2600529219421692e-10
  1.2849999999999999e+00   1.2612461234991609e-10
  1.2900000000000000e+00   1.2624440355306147e-10
  1.2949999999999999e+00   1.2636458616593263e-10
  1.3000000000000000e+00   1.2648508112612523e-10
  1.3049999999999999e+00   1.2660580998386679e-10
  1.3100000000000001e+00   1.2672669493774108e-10
  1.3149999999999999e+00   1.2684765886802851e-10
  1.3200000000000001e+00   1.2696862536742838e-10
  1.3250000000000000e+00   1.2708951876950202e-10
  1.3300000000000001e+00   1.2721026417549142e-10
  1.3350000000000000e+00   1.2733078748010076e-10
  1.3400000000000001e+00   1.2745101539647207e-10
  1.3450000000000000e+00   1.2757087548015208e-10
  1.3500000000000001e+00   1.2769029615157440e-10
  1.3550000000000000e+00   1.2780920671658637e-10
  1.3600000000000001e+00   1.2792753738481270e-10
  1.3650000000000000e+00   1.2804521928600633e-10
  1.3700000000000001e+00   1.2816218448482035e-10
  1.3750000000000000e+00   1.2827836599449979e-10
  1.3800000000000001e+00   1.2839369778985790e-10
  1.3850000000000000e+00   1.2850811481963865e-10
  1.3900000000000001e+00   1.2862155301813956e-10
  1.3950000000000000e+00   1.2873394931587551e-10
  1.4000000000000001e+00   1.2884524164913739e-10
  1.4050000000000000e+00   1.2895536896848139e-10
  1.4099999999999999e+00   1.2906427124637149e-10
  1.4150000000000000e+00   1.2917188948428626e-10
  1.4199999999999999e+00   1.2927816571956572e-10
  1.4250000000000000e+00   1.2938304303212762e-10
  1.4299999999999999e+00   1.2948646555101999e-10
  1.4350000000000001e+00   1.2958837846066070e-10
  1.4399999999999999e+00   1.2968872800660551e-10
  1.4450000000000001e+00   1.2978746150075327e-10
  1.4500000000000000e+00   1.2988452732601321e-10
  1.4550000000000001e+00   1.2997987494053728e-10
  1.4600000000000000e+00   1.3007345488163455e-10
  1.4650000000000001e+00   1.3016521876942970e-10
  1.4700000000000000e+00   1.3025511931022975e-10
  1.4750000000000001e+00   1.3034311029948360e-10
  1.4800000000000000e+00   1.3042914662418575e-10
  1.4850000000000001e+00   1.3051318426460391e-10
  1.4900000000000000e+00   1.3059518029527802e-10
  1.4950000000000001e+00   1.3067509288530757e-10
  1.5000000000000000e+00   1.3075288129798465e-10
  1.5050000000000001e+00   1.3082850588982542e-10
  1.5100000000000000e+00   1.3090192810901621e-10
  1.5150000000000001e+00   1.3097311049324337e-10
  1.5200000000000000e+00   1.3104201666685147e-10
  1.5250000000000001e+00   1.3110861133728143e-10
  1.5300000000000000e+00   1.3117286029077644e-10
  1.5350000000000001e+00   1.3123473038739546e-10
  1.5400000000000000e+00   1.3129418955540859e-10
  1.5449999999999999e+00   1.3135120678516566e-10
  1.5500000000000000e+00   1.3140575212251234e-10
  1.5549999999999999e+00   1.3145779666180562e-10
  1.5600000000000001e+00   1.3150731253855278e-10
  1.5649999999999999e+00   1.3155427292168978e-10
  1.5700000000000001e+00   1.3159865200552584e-10
  1.5750000000000000e+00   1.3164042500140202e-10
  1.5800000000000001e+00   1.3167956812913084e-10
  1.5850000000000000e+00   1.3171605860829474e-10
  1.5900000000000001e+00   1.3174987464947285e-10
  1.5950000000000000e+00   1.3178099544544495e-10
  1.6000000000000001e+00   1.3180940116239744e-10
  1.6050000000000000e+00   1.3183507293113967e-10
  1.6100000000000001e+00   1.3185799283833256e-10
  1.6150000000000000e+00   1.3187814391773376e-10
  1.6200000000000001e+00   1.3189551014147491e-10
  1.6250000000000000e+00   1.3191007641138812e-10
  1.6300000000000001e+00   1.3192182855039873e-10
  1.6350000000000000e+00   1.3193075329398818e-10
  1.6400000000000001e+00   1.3193683828171730e-10
  1.6450000000000000e+00   1.3194007204878686e-10
  1.6500000000000001e+00   1.3194044401760696e-10
  1.6550000000000000e+00   1.3193794448934621e-10
  1.6600000000000001e+00   1.3193256463544153e-10
  1.6650000000000000e+00   1.3192429648905497e-10
  1.6699999999999999e+00   1.3191313293646866e-10
  1.6750000000000000e+00   1.3189906770841016e-10
  1.6799999999999999e+00   1.3188209537129717e-10
  1.6850000000000001e+00   1.3186221131838460e-10
  1.6899999999999999e+00   1.3183941176079966e-10
  1.6950000000000001e+00   1.3181369371845117e-10
  1.7000000000000000e+00   1.3178505501080617e-10
  1.7050000000000001e+00   1.3175349424753791e-10
  1.7100000000000000e+00   1.3171901081905346e-10
  1.7150000000000001e+00   1.3168160488691580e-10
  1.7200000000000000e+00   1.3164127737417363e-10
  1.7250000000000001e+00   1.3159802995561378e-10
  1.7300000000000000e+00   1.3155186504794782e-10
  1.7350000000000001e+00   1.3150278579994624e-10
  1.7400000000000000e+00   1.3145079608253540e-10
  1.7450000000000001e+00   1.3139590047887643e-10
  1.7500000000000000e+00   1.3133810427444565e-10
  1.7550000000000001e+00   1.3127741344714151e-10
  1.7600000000000000e+00   1.3121383465743584e-10
  1.7650000000000001e+00   1.3114737523858784e-10
  1.7700000000000000e+00   1.3107804318693407e-10
  1.7750000000000001e+00   1.3100584715226302e-10
  1.7800000000000000e+00   1.3093079642828124e-10
  1.7850000000000001e+00   1.3085290094317678e-10
  1.7900000000000000e+00   1.3077217125028210e-10
  1.7949999999999999e+00   1.3068861851884028e-10
  1.8000000000000000e+00   1.3060225452487313e-10
  1.8049999999999999e+00   1.3051309164214742e-10
  1.8100000000000001e+00   1.3042114283323077e-10
  1.8149999999999999e+00   1.3032642164062721e-10
  1.8200000000000001e+00   1.3022894217797687e-10
  1.8250000000000000e+00   1.3012871912130680e-10
  1.8300000000000001e+00   1.3002576770031640e-10
  1.8350000000000000e+00   1.2992010368968315e-10
  1.8400000000000001e+00   1.2981174340037338e-10
  1.8450000000000000e+00   1.2970070367094344e-10
  1.8500000000000001e+00   1.2958700185881519e-10
  1.8550000000000000e+00   1.2947065583151138e-10
  1.8600000000000001e+00   1.2935168395783590e-10
  1.8650000000000000e+00   1.2923010509898594e-10
  1.8700000000000001e+00   1.2910593859958461e-10
  1.8750000000000000e+00   1.2897920427862533e-10
  1.8800000000000001e+00   1.2884992242032130e-10
  1.8850000000000000e+00   1.2871811376485624e-10
  1.8900000000000001e+00   1.2858379949903257e-10
  1.8950000000000000e+00   1.2844700124681617e-10
  1.9000000000000001e+00   1.2830774105977722e-10
  1.9050000000000000e+00   1.2816604140742961e-10
  1.9100000000000001e+00   1.2802192516747027e-10
  1.9150000000000000e+00   1.2787541561592341e-10
  1.9199999999999999e+00   1.2772653641719624e-10
  1.9250000000000000e+00   1.2757531161405016e-10
  1.9299999999999999e+00   1.2742176561749657e-10
  1.9350000000000001e+00   1.2726592319662264e-10
  1.9399999999999999e+00   1.2710780946835298e-10
  1.9450000000000001e+00   1.2694744988715395e-10
  1.9500000000000000e+00   1.2678487023468412e-10
  1.9550000000000001e+00   1.2662009660939732e-10
  1.9600000000000000e+00   1.2645315541610003e-10
  1.9650000000000001e+00   1.2628407335546827e-10
  1.9700000000000000e+00   1.2611287741352355e-10
  1.9750000000000001e+00   1.2593959485107105e-10
  1.9800000000000000e+00   1.2576425319309801e-10
  1.9850000000000001e+00   1.2558688021813178e-10
