# First column is time, second column is the perturbation of detonation velocity.
  0.0000000000000000e+00   1.0000000000000000e-10
  5.0000000000000001e-03   1.0023447535789082e-10
  1.0000000000000000e-02   1.0039247261037610e-10
  1.4999999999999999e-02   1.0058381687253387e-10
  2.0000000000000000e-02   1.0082368787001810e-10
  2.5000000000000001e-02   1.0108792156832357e-10
  2.9999999999999999e-02   1.0134548749247356e-10
  3.5000000000000003e-02   1.0157773084125333e-10
  4.0000000000000001e-02   1.0178541973864627e-10
  4.4999999999999998e-02   1.0198479393592916e-10
  5.0000000000000003e-02   1.0219677823582169e-10
  5.5000000000000000e-02   1.0243556485660580e-10
  5.9999999999999998e-02   1.0270214006515333e-10
  6.5000000000000002e-02   1.0298525650857141e-10
  7.0000000000000007e-02   1.0326844728872297e-10
  7.4999999999999997e-02   1.0353889140948815e-10
  8.0000000000000002e-02   1.0379350993186393e-10
  8.5000000000000006e-02   1.0403955882686808e-10
  8.9999999999999997e-02   1.0429001284205774e-10
  9.5000000000000001e-02   1.0455658874908208e-10
  1.0000000000000001e-01   1.0484412441632533e-10
  1.0500000000000000e-01   1.0514896255226775e-10
  1.1000000000000000e-01   1.0546171982350653e-10
  1.1500000000000000e-01   1.0577260544908231e-10
  1.2000000000000000e-01   1.0607638222076396e-10
  1.2500000000000000e-01   1.0637454728790436e-10
  1.3000000000000000e-01   1.0667394514399421e-10
  1.3500000000000001e-01   1.0698287823582161e-10
  1.4000000000000001e-01   1.0730690919945831e-10
  1.4499999999999999e-01   1.0764646960796554e-10
  1.4999999999999999e-01   1.0799727022296203e-10
  1.5500000000000000e-01   1.0835301268967000e-10
  1.6000000000000000e-01   1.0870881376697022e-10
  1.6500000000000001e-01   1.0906356777200367e-10
  1.7000000000000001e-01   1.0942018739462213e-10
  1.7500000000000002e-01   1.0978382777675805e-10
  1.7999999999999999e-01   1.1015918828716688e-10
  1.8500000000000000e-01   1.1054832834219636e-10
  1.9000000000000000e-01   1.1095002676748039e-10
  1.9500000000000001e-01   1.1136083958839486e-10
  2.0000000000000001e-01   1.1177715215473012e-10
  2.0500000000000002e-01   1.1219710266224105e-10
  2.0999999999999999e-01   1.1262143669345000e-10
  2.1500000000000000e-01   1.1305298220052076e-10
  2.2000000000000000e-01   1.1349515164325423e-10
  2.2500000000000001e-01   1.1395031765636583e-10
  2.3000000000000001e-01   1.1441888187941409e-10
  2.3500000000000001e-01   1.1489942602328922e-10
  2.3999999999999999e-01   1.1538975618157181e-10
  2.4500000000000000e-01   1.1588822821660271e-10
  2.5000000000000000e-01   1.1639466733383034e-10
  2.5500000000000000e-01   1.1691046892823724e-10
  2.6000000000000001e-01   1.1743791764978366e-10
  2.6500000000000001e-01   1.1797914560178778e-10
  2.7000000000000002e-01   1.1853528512686774e-10
  2.7500000000000002e-01   1.1910621637337431e-10
  2.8000000000000003e-01   1.1969097244449372e-10
  2.8500000000000003e-01   1.2028853206111762e-10
  2.8999999999999998e-01   1.2089856598950127e-10
  2.9499999999999998e-01   1.2152177231460734e-10
  2.9999999999999999e-01   1.2215967824805704e-10
  3.0499999999999999e-01   1.2281406380640167e-10
  3.1000000000000000e-01   1.2348633392597839e-10
  3.1500000000000000e-01   1.2417715669128124e-10
  3.2000000000000001e-01   1.2488651979527226e-10
  3.2500000000000001e-01   1.2561413382088600e-10
  3.3000000000000002e-01   1.2635994645706164e-10
  3.3500000000000002e-01   1.2712450169443219e-10
  3.4000000000000002e-01   1.2790898309266650e-10
  3.4500000000000003e-01   1.2871495397736391e-10
  3.5000000000000003e-01   1.2954395644710853e-10
  3.5499999999999998e-01   1.3039718405303064e-10
  3.5999999999999999e-01   1.3127538384758841e-10
  3.6499999999999999e-01   1.3217901342185807e-10
  3.7000000000000000e-01   1.3310854961150242e-10
  3.7500000000000000e-01   1.3406478160404222e-10
  3.8000000000000000e-01   1.3504894706127251e-10
  3.8500000000000001e-01   1.3606266320040220e-10
  3.9000000000000001e-01   1.3710771205355770e-10
  3.9500000000000002e-01   1.3818580556271413e-10
  4.0000000000000002e-01   1.3929845302428755e-10
  4.0500000000000003e-01   1.4044698949761154e-10
  4.1000000000000003e-01   1.4163273719221320e-10
  4.1500000000000004e-01   1.4285720789121153e-10
  4.1999999999999998e-01   1.4412224253060739e-10
  4.2499999999999999e-01   1.4543002467847851e-10
  4.2999999999999999e-01   1.4678297233372676e-10
  4.3500000000000000e-01   1.4818357103096096e-10
  4.4000000000000000e-01   1.4963423292930750e-10
  4.4500000000000001e-01   1.5113724485480185e-10
  4.5000000000000001e-01   1.5269481881784895e-10
  4.5500000000000002e-01   1.5430920900787746e-10
  4.6000000000000002e-01   1.5598283429777378e-10
  4.6500000000000002e-01   1.5771835449807607e-10
  4.7000000000000003e-01   1.5951868339021150e-10
  4.7500000000000003e-01   1.6138696130001042e-10
  4.7999999999999998e-01   1.6332653349484922e-10
  4.8499999999999999e-01   1.6534097693545891e-10
  4.8999999999999999e-01   1.6743419041992787e-10
  4.9500000000000000e-01   1.6961052687497317e-10
  5.0000000000000000e-01   1.7187491936327818e-10
  5.0500000000000000e-01   1.7423294606913938e-10
  5.1000000000000001e-01   1.7669079472201627e-10
  5.1500000000000001e-01   1.7925511407470575e-10
  5.2000000000000002e-01   1.8193276534969619e-10
  5.2500000000000002e-01   1.8473049924573112e-10
  5.3000000000000003e-01   1.8765458144084872e-10
  5.3500000000000003e-01   1.9071037726075877e-10
  5.4000000000000004e-01   1.9390189456593828e-10
  5.4500000000000004e-01   1.9723128195695071e-10
  5.5000000000000004e-01   2.0069829025963938e-10
  5.5500000000000005e-01   2.0429972499858480e-10
  5.6000000000000005e-01   2.0802893759984029e-10
  5.6500000000000006e-01   2.1187541462418232e-10
  5.7000000000000006e-01   2.1582452266647671e-10
  5.7500000000000007e-01   2.1985745272936349e-10
  5.7999999999999996e-01   2.2395138759827458e-10
  5.8499999999999996e-01   2.2807989610817958e-10
  5.8999999999999997e-01   2.3221354419008610e-10
  5.9499999999999997e-01   2.3632070510706277e-10
  5.9999999999999998e-01   2.4036854745364383e-10
  6.0499999999999998e-01   2.4432417486157321e-10
  6.0999999999999999e-01   2.4815588271171803e-10
  6.1499999999999999e-01   2.5183448436746147e-10
  6.2000000000000000e-01   2.5533464557585951e-10
  6.2500000000000000e-01   2.5863615541015366e-10
  6.3000000000000000e-01   2.6172505946082781e-10
  6.3500000000000001e-01   2.6459458743312527e-10
  6.4000000000000001e-01   2.6724582137728573e-10
  6.4500000000000002e-01   2.6968806887483518e-10
  6.5000000000000002e-01   2.7193892370710110e-10
  6.5500000000000003e-01   2.7402401223228091e-10
  6.6000000000000003e-01   2.7597643636062691e-10
  6.6500000000000004e-01   2.7783593480034515e-10
  6.7000000000000004e-01   2.7964779481281555e-10
  6.7500000000000004e-01   2.8146155795112124e-10
  6.8000000000000005e-01   2.8332957456275575e-10
  6.8500000000000005e-01   2.8530547131439449e-10
  6.9000000000000006e-01   2.8744260134046231e-10
  6.9500000000000006e-01   2.8979254623007279e-10
  7.0000000000000007e-01   2.9240373279964486e-10
  7.0499999999999996e-01   2.9532021679309089e-10
  7.0999999999999996e-01   2.9858067252271532e-10
  7.1499999999999997e-01   3.0221761417920490e-10
  7.1999999999999997e-01   3.0625686246260349e-10
  7.2499999999999998e-01   3.1071725962262825e-10
  7.2999999999999998e-01   3.1561062648468193e-10
  7.3499999999999999e-01   3.2094194596841685e-10
  7.3999999999999999e-01   3.2670974880598187e-10
  7.4500000000000000e-01   3.3290666915000171e-10
  7.5000000000000000e-01   3.3952013154283121e-10
  7.5500000000000000e-01   3.4653312733568410e-10
  7.6000000000000001e-01   3.5392503864746500e-10
  7.6500000000000001e-01   3.6167247112336669e-10
  7.7000000000000002e-01   3.6975006219340888e-10
  7.7500000000000002e-01   3.7813123802816113e-10
  7.8000000000000003e-01   3.8678889887573884e-10
  7.8500000000000003e-01   3.9569601834516567e-10
  7.9000000000000004e-01   4.0482614741005040e-10
  7.9500000000000004e-01   4.1415381870774140e-10
  8.0000000000000004e-01   4.2365485137851859e-10
  8.0500000000000005e-01   4.3330656125201841e-10
  8.1000000000000005e-01   4.4308788534185597e-10
  8.1500000000000006e-01   4.5297943285416242e-10
  8.2000000000000006e-01   4.6296347680091973e-10
  8.2500000000000007e-01   4.7302390066132003e-10
  8.3000000000000007e-01   4.8314611354985818e-10
  8.3499999999999996e-01   4.9331694551257451e-10
  8.3999999999999997e-01   5.0352453245301429e-10
  8.4499999999999997e-01   5.1375819822681680e-10
  8.4999999999999998e-01   5.2400833981967988e-10
  8.5499999999999998e-01   5.3426632016998024e-10
  8.5999999999999999e-01   5.4452437192120186e-10
  8.6499999999999999e-01   5.5477551403305264e-10
  8.7000000000000000e-01   5.6501348173571370e-10
  8.7500000000000000e-01   5.7523266893446625e-10
  8.8000000000000000e-01   5.8542808109940538e-10
  8.8500000000000001e-01   5.9559529610146980e-10
  8.9000000000000001e-01   6.0573043043298985e-10
  8.9500000000000002e-01   6.1583010866115225e-10
  9.0000000000000002e-01   6.2589143457631662e-10
  9.0500000000000003e-01   6.3591196307494981e-10
  9.1000000000000003e-01   6.4588967220776791e-10
  9.1500000000000004e-01   6.5582293500839708e-10
  9.2000000000000004e-01   6.6571049078660035e-10
  9.2500000000000004e-01   6.7555141565103633e-10
  9.3000000000000005e-01   6.8534509220734218e-10
  9.3500000000000005e-01   6.9509117865935510e-10
  9.4000000000000006e-01   7.0478957784475433e-10
  9.4500000000000006e-01   7.1444040694889202e-10
  9.5000000000000007e-01   7.2404396867896673e-10
  9.5500000000000007e-01   7.3360072453380416e-10
  9.5999999999999996e-01   7.4311127053660334e-10
  9.6499999999999997e-01   7.5257631551491458e-10
  9.6999999999999997e-01   7.6199666180992067e-10
  9.7499999999999998e-01   7.7137318822065854e-10
  9.7999999999999998e-01   7.8070683501895148e-10
  9.8499999999999999e-01   7.8999859094355974e-10
  9.8999999999999999e-01   7.9924948212705035e-10
  9.9500000000000000e-01   8.0846056288564741e-10
  1.0000000000000000e+00   8.1763290821714344e-10
  1.0050000000000001e+00   8.2676760774895528e-10
  1.0100000000000000e+00   8.3586576081231614e-10
  1.0150000000000001e+00   8.4492847232498488e-10
  1.0200000000000000e+00   8.5395684924270368e-10
  1.0249999999999999e+00   8.6295199745437154e-10
  1.0300000000000000e+00   8.7191501909849656e-10
  1.0349999999999999e+00   8.8084701033050935e-10
  1.0400000000000000e+00   8.8974905956114254e-10
  1.0449999999999999e+00   8.9862224613426285e-10
  1.0500000000000000e+00   9.0746763935432670e-10
  1.0549999999999999e+00   9.1628629774246188e-10
  1.0600000000000001e+00   9.2507926841115192e-10
  1.0649999999999999e+00   9.3384758649183609e-10
  1.0700000000000001e+00   9.4259227460248745e-10
  1.0750000000000000e+00   9.5131434237649134e-10
  1.0800000000000001e+00   9.6001478607519603e-10
  1.0850000000000000e+00   9.6869458827797444e-10
  1.0900000000000001e+00   9.7735471760405282e-10
  1.0950000000000000e+00   9.8599612839238734e-10
  1.1000000000000001e+00   9.9461976026469572e-10
  1.1050000000000000e+00   1.0032265375231720e-09
  1.1100000000000001e+00   1.0118173683759142e-09
  1.1150000000000000e+00   1.0203931440211365e-09
  1.1200000000000001e+00   1.0289547376411117e-09
  1.1250000000000000e+00   1.0375030033540037e-09
  1.1300000000000001e+00   1.0460387751533937e-09
  1.1350000000000000e+00   1.0545628658447294e-09
  1.1400000000000001e+00   1.0630760659777905e-09
  1.1450000000000000e+00   1.0715791427798530e-09
  1.1500000000000001e+00   1.0800728391119676e-09
  1.1550000000000000e+00   1.0885578724906117e-09
  1.1599999999999999e+00   1.0970349342283491e-09
  1.1650000000000000e+00   1.1055046887442265e-09
  1.1699999999999999e+00   1.1139677730787673e-09
  1.1750000000000000e+00   1.1224247966269477e-09
  1.1799999999999999e+00   1.1308763410843115e-09
  1.1850000000000001e+00   1.1393229605927040e-09
  1.1899999999999999e+00   1.1477651820735281e-09
  1.1950000000000001e+00   1.1562035057435510e-09
  1.2000000000000000e+00   1.1646384058141869e-09
  1.2050000000000001e+00   1.1730703313744993e-09
  1.2100000000000000e+00   1.1814997074493392e-09
  1.2150000000000001e+00   1.1899269362100632e-09
  1.2200000000000000e+00   1.1983523983014105e-09
  1.2250000000000001e+00   1.2067764542395105e-09
  1.2300000000000000e+00   1.2151994458347351e-09
  1.2350000000000001e+00   1.2236216975979658e-09
  1.2400000000000000e+00   1.2320435180959431e-09
  1.2450000000000001e+00   1.2404652012266485e-09
  1.2500000000000000e+00   1.2488870273868066e-09
  1.2550000000000001e+00   1.2573092645010519e-09
  1.2600000000000000e+00   1.2657321688788018e-09
  1.2650000000000001e+00   1.2741559858637913e-09
  1.2700000000000000e+00   1.2825809502447890e-09
  1.2750000000000001e+00   1.2910072864044324e-09
  1.2800000000000000e+00   1.2994352081943633e-09
  1.2849999999999999e+00   1.3078649185362581e-09
  1.2900000000000000e+00   1.3162966087573901e-09
  1.2949999999999999e+00   1.3247304576754252e-09
  1.3000000000000000e+00   1.3331666304509647e-09
  1.3049999999999999e+00   1.3416052772298151e-09
  1.3100000000000001e+00   1.3500465316017870e-09
  1.3149999999999999e+00   1.3584905089095991e-09
  1.3200000000000001e+00   1.3669373044495147e-09
  1.3250000000000000e+00   1.3753869916129699e-09
  1.3300000000000001e+00   1.3838396200239202e-09
  1.3350000000000000e+00   1.3922952137288597e-09
  1.3400000000000001e+00   1.4007537694955747e-09
  1.3450000000000000e+00   1.4092152552735324e-09
  1.3500000000000001e+00   1.4176796088647706e-09
  1.3550000000000000e+00   1.4261467368499852e-09
  1.3600000000000001e+00   1.4346165138103772e-09
  1.3650000000000000e+00   1.4430887818809874e-09
  1.3700000000000001e+00   1.4515633506647671e-09
  1.3750000000000000e+00   1.4600399975276362e-09
  1.3800000000000001e+00   1.4685184682832024e-09
  1.3850000000000000e+00   1.4769984782621022e-09
  1.3900000000000001e+00   1.4854797137460558e-09
  1.3950000000000000e+00   1.4939618337315488e-09
  1.4000000000000001e+00   1.5024444719732297e-09
  1.4050000000000000e+00   1.5109272392425472e-09
  1.4099999999999999e+00   1.5194097257227254e-09
  1.4150000000000000e+00   1.5278915034464853e-09
  1.4199999999999999e+00   1.5363721286681084e-09
  1.4250000000000000e+00   1.5448511440469772e-09
  1.4299999999999999e+00   1.5533280805064366e-09
  1.4350000000000001e+00   1.5618024586208845e-09
  1.4399999999999999e+00   1.5702737893761089e-09
  1.4450000000000001e+00   1.5787415741438229e-09
  1.4500000000000000e+00   1.5872053037112245e-09
  1.4550000000000001e+00   1.5956644562104450e-09
  1.4600000000000000e+00   1.6041184938010133e-09
  1.4650000000000001e+00   1.6125668579712877e-09
  1.4700000000000000e+00   1.6210089633426208e-09
  1.4750000000000001e+00   1.6294441898833348e-09
  1.4800000000000000e+00   1.6378718734686941e-09
  1.4850000000000001e+00   1.6462912947580203e-09
  1.4900000000000000e+00   1.6547016664005307e-09
  1.4950000000000001e+00   1.6631021186267207e-09
  1.5000000000000000e+00   1.6714916833312553e-09
  1.5050000000000001e+00   1.6798692768054994e-09
  1.5100000000000000e+00   1.6882336813318664e-09
  1.5150000000000001e+00   1.6965835259073198e-09
  1.5200000000000000e+00   1.7049172664183052e-09
  1.5250000000000001e+00   1.7132331656429886e-09
  1.5300000000000000e+00   1.7215292735074015e-09
  1.5350000000000001e+00   1.7298034080682817e-09
  1.5400000000000000e+00   1.7380531377353951e-09
  1.5449999999999999e+00   1.7462757652782782e-09
  1.5500000000000000e+00   1.7544683141851488e-09
  1.5549999999999999e+00   1.7626275179540577e-09
  1.5600000000000001e+00   1.7707498128970925e-09
  1.5649999999999999e+00   1.7788313350268501e-09
  1.5700000000000001e+00   1.7868679215698932e-09
  1.5750000000000000e+00   1.7948551176140057e-09
  1.5800000000000001e+00   1.8027881883447166e-09
  1.5850000000000000e+00   1.8106621372618585e-09
  1.5900000000000001e+00   1.8184717306894444e-09
  1.5950000000000000e+00   1.8262115288028066e-09
  1.6000000000000001e+00   1.8338759232970376e-09
  1.6050000000000000e+00   1.8414591817120017e-09
  1.6100000000000001e+00   1.8489554983133204e-09
  1.6150000000000000e+00   1.8563590513080187e-09
  1.6200000000000001e+00   1.8636640660500470e-09
  1.6250000000000000e+00   1.8708648837671796e-09
  1.6300000000000001e+00   1.8779560352192444e-09
  1.6350000000000000e+00   1.8849323185808737e-09
  1.6400000000000001e+00   1.8917888807326009e-09
  1.6450000000000000e+00   1.8985213010446615e-09
  1.6500000000000001e+00   1.9051256766507703e-09
  1.6550000000000000e+00   1.9115987081365752e-09
  1.6600000000000001e+00   1.9179377845114221e-09
  1.6650000000000000e+00   1.9241410662940480e-09
  1.6699999999999999e+00   1.9302075655241917e-09
  1.6750000000000000e+00   1.9361372215137111e-09
  1.6799999999999999e+00   1.9419309711732305e-09
  1.6850000000000001e+00   1.9475908127937260e-09
  1.6899999999999999e+00   1.9531198622264548e-09
  1.6950000000000001e+00   1.9585224004886598e-09
  1.7000000000000000e+00   1.9638039119252327e-09
  1.7050000000000001e+00   1.9689711121765590e-09
  1.7100000000000000e+00   1.9740319653380580e-09
  1.7150000000000001e+00   1.9789956898452894e-09
  1.7200000000000000e+00   1.9838727527772884e-09
  1.7250000000000001e+00   1.9886748524373446e-09
  1.7300000000000000e+00   1.9934148892417402e-09
  1.7350000000000001e+00   1.9981069251200017e-09
  1.7400000000000000e+00   2.0027661318018480e-09
  1.7450000000000001e+00   2.0074087285331550e-09
  1.7500000000000000e+00   2.0120519099227557e-09
  1.7550000000000001e+00   2.0167137647709407e-09
  1.7600000000000000e+00   2.0214131868662820e-09
  1.7650000000000001e+00   2.0261697788574850e-09
  1.7700000000000000e+00   2.0310037504091555e-09
  1.7750000000000001e+00   2.0359358119329044e-09
  1.7800000000000000e+00   2.0409870652465627e-09
  1.7850000000000001e+00   2.0461788925535329e-09
  1.7900000000000000e+00   2.0515328451506598e-09
  1.7949999999999999e+00   2.0570705332665001e-09
  1.8000000000000000e+00   2.0628135184024646e-09
  1.8049999999999999e+00   2.0687832094979878e-09
  1.8100000000000001e+00   2.0750007641684341e-09
  1.8149999999999999e+00   2.0814869961726311e-09
  1.8200000000000001e+00   2.0882622901573604e-09
  1.8250000000000000e+00   2.0953465246011107e-09
  1.8300000000000001e+00   2.1027590037412758e-09
  1.8350000000000000e+00   2.1105183991204421e-09
  1.8400000000000001e+00   2.1186427012312266e-09
  1.8450000000000000e+00   2.1271491815782599e-09
  1.8500000000000001e+00   2.1360543653134049e-09
  1.8550000000000000e+00   2.1453740144390998e-09
  1.8600000000000001e+00   2.1551231214178506e-09
  1.8650000000000000e+00   2.1653159128761536e-09
  1.8700000000000001e+00   2.1759658629513383e-09
  1.8750000000000000e+00   2.1870857157022856e-09
  1.8800000000000001e+00   2.1986875158921116e-09
  1.8850000000000000e+00   2.2107826473544954e-09
  1.8900000000000001e+00   2.2233818780770908e-09
  1.8950000000000000e+00   2.2364954110765027e-09
  1.9000000000000001e+00   2.2501329401006024e-09
  1.9050000000000000e+00   2.2643037091757016e-09
  1.9100000000000001e+00   2.2790165750185694e-09
  1.9150000000000000e+00   2.2942800713556197e-09
  1.9199999999999999e+00   2.3101024742332611e-09
  1.9250000000000000e+00   2.3264918674626691e-09
  1.9299999999999999e+00   2.3434562074176306e-09
  1.9350000000000001e+00   2.3610033864932046e-09
  1.9399999999999999e+00   2.3791412946332399e-09
  1.9450000000000001e+00   2.3978778784435059e-09
  1.9500000000000000e+00   2.4172211975209410e-09
  1.9550000000000001e+00   2.4371794777451518e-09
  1.9600000000000000e+00   2.4577611613920091e-09
  1.9650000000000001e+00   2.4789749540376717e-09
  1.9700000000000000e+00   2.5008298683206418e-09
  1.9750000000000001e+00   2.5233352647164780e-09
  1.9800000000000000e+00   2.5465008895507076e-09
  1.9850000000000001e+00   2.5703369105278716e-09
