# ZND solution.
# Columns are: spatial coordinate; specific volume; density;
# flow velocity in lab frame; pressure; reaction progress variable.
 -4.0750000000000002e+00   5.5721746169784858e-01   1.7946314836455186e+00   3.0151164610293830e+00   2.1531359046879963e+01   9.9999999999900002e-01
 -4.0499999999999998e+00   5.5721746169784858e-01   1.7946314836455186e+00   3.0151164610293830e+00   2.1531359046879963e+01   9.9999999999900002e-01
 -4.0250000000000004e+00   5.5721746169784858e-01   1.7946314836455186e+00   3.0151164610293830e+00   2.1531359046879963e+01   9.9999999999900002e-01
 -4.0000000000000000e+00   5.5721746169784858e-01   1.7946314836455186e+00   3.0151164610293830e+00   2.1531359046879963e+01   9.9999999999900002e-01
 -3.9750000000000001e+00   5.5721746169784858e-01   1.7946314836455186e+00   3.0151164610293830e+00   2.1531359046879963e+01   9.9999999999900002e-01
 -3.9500000000000002e+00   5.5721746169784858e-01   1.7946314836455186e+00   3.0151164610293830e+00   2.1531359046879963e+01   9.9999999999900002e-01
 -3.9250000000000003e+00   5.5721746169784858e-01   1.7946314836455186e+00   3.0151164610293830e+00   2.1531359046879963e+01   9.9999999999900002e-01
 -3.9000000000000004e+00   5.5721746169784858e-01   1.7946314836455186e+00   3.0151164610293830e+00   2.1531359046879963e+01   9.9999999999900002e-01
 -3.8750000000000000e+00   5.5721746169784858e-01   1.7946314836455186e+00   3.0151164610293830e+00   2.1531359046879963e+01   9.9999999999900002e-01
 -3.8500000000000001e+00   5.5721746169784858e-01   1.7946314836455186e+00   3.0151164610293830e+00   2.1531359046879963e+01   9.9999999999900002e-01
 -3.8250000000000002e+00   5.5721746169784858e-01   1.7946314836455186e+00   3.0151164610293830e+00   2.1531359046879963e+01   9.9999999999900002e-01
 -3.8000000000000003e+00   5.5721746169784858e-01   1.7946314836455186e+00   3.0151164610293830e+00   2.1531359046879963e+01   9.9999999999900002e-01
 -3.7750000000000004e+00   5.5721746169784858e-01   1.7946314836455186e+00   3.0151164610293830e+00   2.1531359046879963e+01   9.9999999999900002e-01
 -3.7500000000000000e+00   5.5721746169784858e-01   1.7946314836455186e+00   3.0151164610293830e+00   2.1531359046879963e+01   9.9999999999900002e-01
 -3.7250000000000001e+00   5.5721746169784858e-01   1.7946314836455186e+00   3.0151164610293830e+00   2.1531359046879963e+01   9.9999999999900002e-01
 -3.7000000000000002e+00   5.5721746169784858e-01   1.7946314836455186e+00   3.0151164610293830e+00   2.1531359046879963e+01   9.9999999999900002e-01
 -3.6750000000000003e+00   5.5721743059951323e-01   1.7946315838040001e+00   3.0151166727927086e+00   2.1531360488876956e+01   9.9999999999885458e-01
 -3.6500000000000004e+00   5.5721736854211756e-01   1.7946317836724333e+00   3.0151170953709698e+00   2.1531363366412908e+01   9.9999999999853473e-01
 -3.6250000000000000e+00   5.5721729833867062e-01   1.7946320097769306e+00   3.0151175734195608e+00   2.1531366621672657e+01   9.9999999999812583e-01
 -3.6000000000000001e+00   5.5721721897115395e-01   1.7946322653962494e+00   3.0151181138706518e+00   2.1531370301860651e+01   9.9999999999760303e-01
 -3.5750000000000002e+00   5.5721712925136346e-01   1.7946325543572710e+00   3.0151187248152889e+00   2.1531374462072659e+01   9.9999999999693412e-01
 -3.5500000000000003e+00   5.5721702769714054e-01   1.7946328814336261e+00   3.0151194163461934e+00   2.1531379171034807e+01   9.9999999999607869e-01
 -3.5250000000000004e+00   5.5721691288544473e-01   1.7946332512085552e+00   3.0151201981535234e+00   2.1531384494731988e+01   9.9999999999498446e-01
 -3.5000000000000000e+00   5.5721678300031086e-01   1.7946336695308083e+00   3.0151210826030472e+00   2.1531390517368582e+01   9.9999999999358435e-01
 -3.4750000000000001e+00   5.5721663609397443e-01   1.7946341426736410e+00   3.0151220829580181e+00   2.1531397329260376e+01   9.9999999999179390e-01
 -3.4500000000000002e+00   5.5721646999285235e-01   1.7946346776376287e+00   3.0151232140193951e+00   2.1531405031194126e+01   9.9999999998950395e-01
 -3.4250000000000003e+00   5.5721628214457108e-01   1.7946352826433518e+00   3.0151244931675003e+00   2.1531413741520698e+01   9.9999999998657529e-01
 -3.4000000000000004e+00   5.5721606971046700e-01   1.7946359668334877e+00   3.0151259397321426e+00   2.1531423591865927e+01   9.9999999998282896e-01
 -3.3750000000000000e+00   5.5721582942430392e-01   1.7946367407278530e+00   3.0151275759546738e+00   2.1531434733681746e+01   9.9999999997803724e-01
 -3.3500000000000001e+00   5.5721555769098319e-01   1.7946376159055006e+00   3.0151294263158275e+00   2.1531447333669075e+01   9.9999999997190836e-01
 -3.3250000000000002e+00   5.5721525036646025e-01   1.7946386057135664e+00   3.0151315190343695e+00   2.1531461583982892e+01   9.9999999996406941e-01
 -3.3000000000000003e+00   5.5721490279520347e-01   1.7946397251466477e+00   3.0151338858120247e+00   2.1531477700495291e+01   9.9999999995404254e-01
 -3.2750000000000004e+00   5.5721450971227471e-01   1.7946409911622072e+00   3.0151365625002553e+00   2.1531495927335889e+01   9.9999999994121780e-01
 -3.2500000000000000e+00   5.5721406514617133e-01   1.7946424229935307e+00   3.0151395897618576e+00   2.1531516541396964e+01   9.9999999992481425e-01
 -3.2250000000000001e+00   5.5721356237444208e-01   1.7946440422927283e+00   3.0151430133731925e+00   2.1531539854391493e+01   9.9999999990383326e-01
 -3.2000000000000002e+00   5.5721299374896893e-01   1.7946458736935196e+00   3.0151468854139254e+00   2.1531566220954630e+01   9.9999999987699706e-01
 -3.1750000000000003e+00   5.5721235066589891e-01   1.7946479449081592e+00   3.0151512644717755e+00   2.1531596040037961e+01   9.9999999984267218e-01
 -3.1500000000000004e+00   5.5721162336600116e-01   1.7946502873705417e+00   3.0151562170019774e+00   2.1531629764166723e+01   9.9999999979876830e-01
 -3.1250000000000000e+00   5.5721080082071561e-01   1.7946529366033470e+00   3.0151618181032314e+00   2.1531667904723609e+01   9.9999999974261289e-01
 -3.1000000000000001e+00   5.5720987054985849e-01   1.7946559328053417e+00   3.0151681527590317e+00   2.1531711040401571e+01   9.9999999967078601e-01
 -3.0750000000000002e+00   5.5720881845370041e-01   1.7946593213924378e+00   3.0151753169811282e+00   2.1531759824990178e+01   9.9999999957891483e-01
 -3.0499999999999998e+00   5.5720762857412975e-01   1.7946631537672175e+00   3.0151834194358766e+00   2.1531814998450226e+01   9.9999999946140561e-01
 -3.0250000000000004e+00   5.5720628286865559e-01   1.7946674880471862e+00   3.0151925829831621e+00   2.1531877397392982e+01   9.9999999931110317e-01
 -3.0000000000000000e+00   5.5720476092341797e-01   1.7946723899895745e+00   3.0152029466306454e+00   2.1531947968387591e+01   9.9999999911885551e-01
 -2.9750000000000001e+00   5.5720303966013207e-01   1.7946779339358117e+00   3.0152146675293214e+00   2.1532027781549765e+01   9.9999999887295710e-01
 -2.9500000000000002e+00   5.5720109296753328e-01   1.7946842039993405e+00   3.0152279234831849e+00   2.1532118047631290e+01   9.9999999855843402e-01
 -2.9249999999999998e+00   5.5719889132134215e-01   1.7946912952906255e+00   3.0152429155370668e+00   2.1532220135641847e+01   9.9999999815613416e-01
 -2.9000000000000004e+00   5.5719640132982118e-01   1.7946993153821003e+00   3.0152598710711569e+00   2.1532335593921065e+01   9.9999999764155978e-01
 -2.8750000000000000e+00   5.5719358521665363e-01   1.7947083859753516e+00   3.0152790473223257e+00   2.1532466174116891e+01   9.9999999698337438e-01
 -2.8500000000000001e+00   5.5719040026756028e-01   1.7947186446855592e+00   3.0153007351523735e+00   2.1532613856845373e+01   9.9999999614149593e-01
 -2.8250000000000002e+00   5.5718679816014505e-01   1.7947302472026319e+00   3.0153252636114312e+00   2.1532780882765032e+01   9.9999999506465265e-01
 -2.7999999999999998e+00   5.5718272424628135e-01   1.7947433696059611e+00   3.0153530048245294e+00   2.1532969785851819e+01   9.9999999368726100e-01
 -2.7750000000000004e+00   5.5717811671224604e-01   1.7947582110739082e+00   3.0153843797106483e+00   2.1533183432342852e+01   9.9999999192542877e-01
 -2.7500000000000000e+00   5.5717290564415489e-01   1.7947749968995474e+00   3.0154198643466081e+00   2.1533425064071167e+01   9.9999998967184289e-01
 -2.7250000000000001e+00   5.5716701196096619e-01   1.7947939819345544e+00   3.0154599972327571e+00   2.1533698347941215e+01   9.9999998678922974e-01
 -2.7000000000000002e+00   5.5716034621063815e-01   1.7948154544759067e+00   3.0155053874905038e+00   2.1534007431749771e+01   9.9999998310198623e-01
 -2.6749999999999998e+00   5.5715280721397864e-01   1.7948397406457699e+00   3.0155567240969896e+00   2.1534357007069215e+01   9.9999997838547616e-01
 -2.6500000000000004e+00   5.5714428051800324e-01   1.7948672093882987e+00   3.0156147864169092e+00   2.1534752380963642e+01   9.9999997235233207e-01
 -2.6250000000000000e+00   5.5713463665724272e-01   1.7948982780893130e+00   3.0156804560420900e+00   2.1535199556610252e+01   9.9999996463492957e-01
 -2.6000000000000001e+00   5.5712372917544883e-01   1.7949334189732224e+00   3.0157547302626391e+00   2.1535705325030719e+01   9.9999995476296277e-01
 -2.5750000000000002e+00   5.5711139239153340e-01   1.7949731663308153e+00   3.0158387372797231e+00   2.1536277368682267e+01   9.9999994213474619e-01
 -2.5499999999999998e+00   5.5709743887364016e-01   1.7950181246961687e+00   3.0159337534058115e+00   2.1536924378582277e+01   9.9999992598049314e-01
 -2.5250000000000004e+00   5.5708165656940656e-01   1.7950689781425435e+00   3.0160412226060878e+00   2.1537656187375031e+01   9.9999990531531702e-01
 -2.5000000000000000e+00   5.5706380556494017e-01   1.7951265007890091e+00   3.0161627785681158e+00   2.1538483919614546e+01   9.9999987887907615e-01
 -2.4750000000000001e+00   5.5704361440834593e-01   1.7951915687286577e+00   3.0163002697366883e+00   2.1539420162238741e+01   9.9999984505937789e-01
 -2.4500000000000002e+00   5.5702077594713162e-01   1.7952651735469787e+00   3.0164557876589075e+00   2.1540479157584553e+01   9.9999980179301018e-01
 -2.4249999999999998e+00   5.5699494260966331e-01   1.7953484376621895e+00   3.0166316991149977e+00   2.1541677022181869e+01   9.9999974643974809e-01
 -2.4000000000000004e+00   5.5696572105630382e-01   1.7954426317358760e+00   3.0168306825412388e+00   2.1543031994774580e+01   9.9999967562076886e-01
 -2.3750000000000000e+00   5.5693266611792391e-01   1.7955491944303763e+00   3.0170557693055220e+00   2.1544564717385441e+01   9.9999958501172426e-01
 -2.3500000000000001e+00   5.5689527391610327e-01   1.7956697548678620e+00   3.0173103905551675e+00   2.1546298554325077e+01   9.9999946907770099e-01
 -2.3250000000000002e+00   5.5685297406169065e-01   1.7958061581425899e+00   3.0175984303406289e+00   2.1548259953936512e+01   9.9999932073368925e-01
 -2.2999999999999998e+00   5.5680512079641420e-01   1.7959604943461576e+00   3.0179242859364757e+00   2.1550478859349369e+01   9.9999913090953618e-01
 -2.2750000000000004e+00   5.5675098293495151e-01   1.7961351315958716e+00   3.0182929363306106e+00   2.1552989174855444e+01   9.9999888799238035e-01
 -2.2500000000000000e+00   5.5668973243588371e-01   1.7963327536585636e+00   3.0187100200500674e+00   2.1555829295861535e+01   9.9999857711188544e-01
 -2.2250000000000001e+00   5.5662043140924067e-01   1.7965564028402976e+00   3.0191819236328032e+00   2.1559042711335824e+01   9.9999817922367351e-01
 -2.2000000000000002e+00   5.5654201733485376e-01   1.7968095289350481e+00   3.0197158822829500e+00   2.1562678689217293e+01   9.9999766993360373e-01
 -2.1749999999999998e+00   5.5645328623486190e-01   1.7970960451439055e+00   3.0203200944572073e+00   2.1566793056688834e+01   9.9999701798904783e-01
 -2.1500000000000004e+00   5.5635287349913820e-01   1.7974203920446705e+00   3.0210038524336134e+00   2.1571449089282009e+01   9.9999618334203688e-01
 -2.1250000000000000e+00   5.5623923201827330e-01   1.7977876108658737e+00   3.0217776912144410e+00   2.1576718524827509e+01   9.9999511466160340e-01
 -2.1000000000000001e+00   5.5611060721797512e-01   1.7982034275566989e+00   3.0226535585288179e+00   2.1582682721083714e+01   9.9999374613696701e-01
 -2.0750000000000002e+00   5.5596500852433628e-01   1.7986743494059787e+00   3.0236450091392646e+00   2.1589433978862122e+01   9.9999199336692679e-01
 -2.0500000000000003e+00   5.5580017670730242e-01   1.7992077762987537e+00   3.0247674272155192e+00   2.1597077056276262e+01   9.9998974807066376e-01
 -2.0249999999999999e+00   5.5561354645318206e-01   1.7998121291023337e+00   3.0260382811960804e+00   2.1605730904214909e+01   9.9998687127681873e-01
 -2.0000000000000000e+00   5.5540220340141344e-01   1.8004969981677519e+00   3.0274774163452558e+00   2.1615530658501886e+01   9.9998318454549817e-01
 -1.9750000000000001e+00   5.5516283473974093e-01   1.8012733155467759e+00   3.0291073911740529e+00   2.1626629930745580e+01   9.9997845864414658e-01
 -1.9500000000000002e+00   5.5489167228254355e-01   1.8021535552813508e+00   3.0309538650468575e+00   2.1639203447736790e+01   9.9997239892291134e-01
 -1.9250000000000003e+00   5.5458442674777786e-01   1.8031519670760514e+00   3.0330460457209241e+00   2.1653450098957531e+01   9.9996462640452011e-01
 -1.8999999999999999e+00   5.5423621169454318e-01   1.8042848498523065e+00   3.0354172072915948e+00   2.1669596463515862e+01   9.9995465329952216e-01
 -1.8750000000000000e+00   5.5384145526888007e-01   1.8055708731924338e+00   3.0381052911570468e+00   2.1687900902400084e+01   9.9994185125506529e-01
 -1.8500000000000001e+00   5.5339379751854945e-01   1.8070314565939467e+00   3.0411536052506984e+00   2.1708658319884069e+01   9.9992541011040781e-01
 -1.8250000000000002e+00   5.5288597055555233e-01   1.8086912189057309e+00   3.0446116400714898e+00   2.1732205720264762e+01   9.9990428421867406e-01
 -1.8000000000000003e+00   5.5230965824527900e-01   1.8105785134684411e+00   3.0485360241270625e+00   2.1758928713928267e+01   9.9987712243821236e-01
 -1.7749999999999999e+00   5.5165533134914835e-01   1.8127260685659714e+00   3.0529916465257747e+00   2.1789269161611688e+01   9.9984217660988939e-01
 -1.7500000000000000e+00   5.5091205310282199e-01   1.8151717581197311e+00   3.0580529808869197e+00   2.1823734189536182e+01   9.9979718159570596e-01
 -1.7250000000000001e+00   5.5006724902048776e-01   1.8179595345491186e+00   3.0638056528526163e+00   2.1862906863339408e+01   9.9973919758671848e-01
 -1.7000000000000002e+00   5.4910643320814456e-01   1.8211405649675561e+00   3.0703483037505528e+00   2.1907458878639694e+01   9.9966440215111851e-01
 -1.6749999999999998e+00   5.4801288155843464e-01   1.8247746241953438e+00   3.0777948159654867e+00   2.1958165714646810e+01   9.9956781504145087e-01
 -1.6499999999999999e+00   5.4676723977466879e-01   1.8289318145910047e+00   3.0862769820896969e+00   2.2015924809674271e+01   9.9944293262095152e-01
 -1.6250000000000000e+00   5.4534705109554282e-01   1.8336947050343610e+00   3.0959477208695496e+00   2.2081777460045842e+01   9.9928124019674047e-01
 -1.6000000000000001e+00   5.4372618469780809e-01   1.8391610118165995e+00   3.1069849694830092e+00   2.2156935324460555e+01   9.9907155854452590e-01
 -1.5750000000000002e+00   5.4187414084899177e-01   1.8454469859610401e+00   3.1195964150845601e+00   2.2242812643327781e+01   9.9879916400372903e-01
 -1.5499999999999998e+00   5.3975520276906419e-01   1.8526917292687086e+00   3.1340252701816684e+00   2.2341065566046723e+01   9.9844459758185955e-01
 -1.5249999999999999e+00   5.3732739766557880e-01   1.8610627419046644e+00   3.1505573474396358e+00   2.2453640326710595e+01   9.9798204444528316e-01
 -1.5000000000000000e+00   5.3454122050148156e-01   1.8707631173174013e+00   3.1695297501523219e+00   2.2582832421646515e+01   9.9737711654375905e-01
 -1.4750000000000001e+00   5.3133806404379513e-01   1.8820409597411711e+00   3.1913415627858011e+00   2.2731359406401307e+01   9.9658380158533322e-01
 -1.4500000000000002e+00   5.2764828871040315e-01   1.8952018255267089e+00   3.2164669943077158e+00   2.2902450394909298e+01   9.9554024233437821e-01
 -1.4249999999999998e+00   5.2338885840916249e-01   1.9106253102893600e+00   3.2454714768808617e+00   2.3099955683137839e+01   9.9416286952568711e-01
 -1.3999999999999999e+00   5.1846047002677875e-01   1.9287873575942047e+00   3.2790312125358643e+00   2.3328479851659008e+01   9.9233821536282829e-01
 -1.3750000000000000e+00   5.1274412720141682e-01   1.9502904995870947e+00   3.3179565039796626e+00   2.3593540636198064e+01   9.8991146903087279e-01
 -1.3500000000000001e+00   5.0609717911918750e-01   1.9759051053009264e+00   3.3632187283103367e+00   2.3901752604460221e+01   9.8667049835001108e-01
 -1.3250000000000002e+00   4.9834901222812517e-01   2.0066258294141819e+00   3.4159796741814747e+00   2.4261026926807126e+01   9.8232368936178105e-01
 -1.2999999999999998e+00   4.8929694080854624e-01   2.0437487271993455e+00   3.4776195248590582e+00   2.4680761926172778e+01   9.7646969394939997e-01
 -1.2749999999999999e+00   4.7870355876911774e-01   2.0889754874003503e+00   3.5497548910989485e+00   2.5171965872485266e+01   9.6855743774392100e-01
 -1.2500000000000000e+00   4.6629816247219857e-01   2.1445505911887901e+00   3.6342291224538217e+00   2.5747191007757149e+01   9.5783653567831673e-01
 -1.2250000000000001e+00   4.5178719496771913e-01   2.2134314808799562e+00   3.7330411875275398e+00   2.6420049257981933e+01   9.4330377333884696e-01
 -1.2000000000000002e+00   4.3488221492706003e-01   2.2994732037218939e+00   3.8481552202294860e+00   2.7203915343184836e+01   9.2366455422199256e-01
 -1.1749999999999998e+00   4.1535784843751916e-01   2.4075625482021596e+00   3.9811058985003935e+00   2.8109239613867999e+01   8.9735444394109387e-01
 -1.1499999999999999e+00   3.9315245676882782e-01   2.5435425438228823e+00   4.1323129497102329e+00   2.9138880192908612e+01   8.6270517952540360e-01
 -1.1250000000000000e+00   3.6851027942533249e-01   2.7136285087065528e+00   4.3001132311505925e+00   3.0281511952228229e+01   8.1836531067506013e-01
 -1.1000000000000001e+00   3.4212104861974740e-01   2.9229420523361491e+00   4.4798100288177300e+00   3.1505152736975546e+01   7.6401303115937425e-01
 -1.0750000000000002e+00   3.1514899677680469e-01   3.1731022793266943e+00   4.6634755315523924e+00   3.2755818318192809e+01   7.0111926775983247e-01
 -1.0499999999999998e+00   2.8903316192196044e-01   3.4598106091023637e+00   4.8413106464291058e+00   3.3966782021210243e+01   6.3315041627660096e-01
 -1.0249999999999999e+00   2.6508539022455641e-01   3.7723693454131526e+00   5.0043823902397078e+00   3.5077214923504577e+01   5.6470899732586288e-01
 -1.0000000000000000e+00   2.4412368218521396e-01   4.0962842729912250e+00   5.1471206093281596e+00   3.6049187205071668e+01   5.0000000000261746e-01
 -9.7500000000000009e-01   2.2637259721005676e-01   4.4174958114390286e+00   5.2679961721156090e+00   3.6872286283219886e+01   4.4169713635047797e-01
 -9.5000000000000018e-01   2.1161721639595521e-01   4.7255134389864972e+00   5.3684725634203527e+00   3.7556477720690339e+01   3.9078709497486830e-01
 -9.2499999999999982e-01   1.9943177091926553e-01   5.0142462025512602e+00   5.4514490452450985e+00   3.8121503968535215e+01   3.4706957314442743e-01
 -8.9999999999999991e-01   1.8935010835825636e-01   5.2812222220014187e+00   5.5200998706791840e+00   3.8588980022634523e+01   3.0975473121648572e-01
 -8.7500000000000000e-01   1.8095175520241186e-01   5.5263349000478295e+00   5.5772882434249160e+00   3.8978402795958701e+01   2.7787863369312327e-01
 -8.5000000000000009e-01   1.7388967874570099e-01   5.7507726002669530e+00   5.6253772738896783e+00   3.9305863828873925e+01   2.5051750224148517e-01
 -8.2500000000000018e-01   1.6788941236629076e-01   5.9563017459270258e+00   5.6662359355715344e+00   3.9584089848998794e+01   2.2687044985198987e-01
 -7.9999999999999982e-01   1.6273789496141852e-01   6.1448502835622731e+00   5.7013150626443156e+00   3.9822960274831864e+01   2.0627529608971215e-01
