# First column is time, second column is the perturbation of detonation velocity.
  0.0000000000000000e+00   1.0000000000000000e-10
  1.0000000000000000e-02   1.0003392812958956e-10
  2.0000000000000000e-02   1.0006908978444012e-10
  2.9999999999999999e-02   1.0010507389071877e-10
  4.0000000000000001e-02   1.0014151841189006e-10
  5.0000000000000003e-02   1.0017812253457468e-10
  5.9999999999999998e-02   1.0021465596488482e-10
  7.0000000000000007e-02   1.0025096404266241e-10
  8.0000000000000002e-02   1.0028696783155795e-10
  8.9999999999999997e-02   1.0032265889645052e-10
  1.0000000000000001e-01   1.0035808907064751e-10
  1.1000000000000000e-01   1.0039335607397272e-10
  1.2000000000000000e-01   1.0042858630412621e-10
  1.3000000000000000e-01   1.0046391643470313e-10
  1.4000000000000001e-01   1.0049947557945998e-10
  1.4999999999999999e-01   1.0053536971137940e-10
  1.6000000000000000e-01   1.0057166976749924e-10
  1.7000000000000001e-01   1.0060840445842259e-10
  1.7999999999999999e-01   1.0064555828418172e-10
  1.9000000000000000e-01   1.0068307469601683e-10
  2.0000000000000001e-01   1.0072086380079096e-10
  2.0999999999999999e-01   1.0075881354163996e-10
  2.2000000000000000e-01   1.0079680295494704e-10
  2.3000000000000001e-01   1.0083471593372542e-10
  2.3999999999999999e-01   1.0087245393544449e-10
  2.5000000000000000e-01   1.0090994625215284e-10
  2.6000000000000001e-01   1.0094715678710252e-10
  2.7000000000000002e-01   1.0098408671384079e-10
  2.8000000000000003e-01   1.0102077287916773e-10
  2.8999999999999998e-01   1.0105728229430512e-10
  2.9999999999999999e-01   1.0109370348503635e-10
  3.1000000000000000e-01   1.0113013579557516e-10
  3.2000000000000001e-01   1.0116667792972104e-10
  3.3000000000000002e-01   1.0120341705005248e-10
  3.4000000000000002e-01   1.0124041964276815e-10
  3.5000000000000003e-01   1.0127772511051034e-10
  3.5999999999999999e-01   1.0131534271057961e-10
  3.7000000000000000e-01   1.0135325205396444e-10
  3.8000000000000000e-01   1.0139140696908589e-10
  3.9000000000000001e-01   1.0142974215999124e-10
  4.0000000000000002e-01   1.0146818179290658e-10
  4.1000000000000003e-01   1.0150664895821806e-10
  4.1999999999999998e-01   1.0154507489429690e-10
  4.2999999999999999e-01   1.0158340692740479e-10
  4.4000000000000000e-01   1.0162161426587811e-10
  4.5000000000000001e-01   1.0165969106184285e-10
  4.6000000000000002e-01   1.0169765648540039e-10
  4.7000000000000003e-01   1.0173555190491837e-10
  4.7999999999999998e-01   1.0177343559263603e-10
  4.8999999999999999e-01   1.0181137564119485e-10
  5.0000000000000000e-01   1.0184944195588045e-10
  5.1000000000000001e-01   1.0188769826214978e-10
  5.2000000000000002e-01   1.0192619503370158e-10
  5.3000000000000003e-01   1.0196496411073438e-10
  5.4000000000000004e-01   1.0200401556012161e-10
  5.5000000000000004e-01   1.0204333705664632e-10
  5.6000000000000005e-01   1.0208289576999974e-10
  5.7000000000000006e-01   1.0212264246006662e-10
  5.7999999999999996e-01   1.0216251724458332e-10
  5.8999999999999997e-01   1.0220245633396011e-10
  5.9999999999999998e-01   1.0224239894455762e-10
  6.0999999999999999e-01   1.0228229361033822e-10
  6.2000000000000000e-01   1.0232210320925801e-10
  6.3000000000000000e-01   1.0236180819092319e-10
  6.4000000000000001e-01   1.0240140771397696e-10
  6.5000000000000002e-01   1.0244091864841417e-10
  6.6000000000000003e-01   1.0248037264072301e-10
  6.7000000000000004e-01   1.0251981165111125e-10
  6.8000000000000005e-01   1.0255928252931683e-10
  6.9000000000000006e-01   1.0259883128280975e-10
  7.0000000000000007e-01   1.0263849770123874e-10
  7.0999999999999996e-01   1.0267831093545055e-10
  7.1999999999999997e-01   1.0271828649849233e-10
  7.2999999999999998e-01   1.0275842497691675e-10
  7.3999999999999999e-01   1.0279871253548781e-10
  7.5000000000000000e-01   1.0283912309123676e-10
  7.6000000000000001e-01   1.0287962184728301e-10
  7.7000000000000002e-01   1.0292016973315369e-10
  7.8000000000000003e-01   1.0296072821127342e-10
  7.9000000000000004e-01   1.0300126388666951e-10
  8.0000000000000004e-01   1.0304175239898613e-10
  8.1000000000000005e-01   1.0308218117552723e-10
  8.2000000000000006e-01   1.0312255076789411e-10
  8.3000000000000007e-01   1.0316287466496558e-10
  8.3999999999999997e-01   1.0320317765126880e-10
  8.4999999999999998e-01   1.0324349294202452e-10
  8.5999999999999999e-01   1.0328385845646355e-10
  8.7000000000000000e-01   1.0332431267579946e-10
  8.8000000000000000e-01   1.0336489056354962e-10
  8.9000000000000001e-01   1.0340562000210693e-10
  9.0000000000000002e-01   1.0344651912525479e-10
  9.1000000000000003e-01   1.0348759481190241e-10
  9.2000000000000004e-01   1.0352884246609003e-10
  9.3000000000000005e-01   1.0357024705906591e-10
  9.4000000000000006e-01   1.0361178526817305e-10
  9.5000000000000007e-01   1.0365342843005707e-10
  9.5999999999999996e-01   1.0369514594470373e-10
  9.6999999999999997e-01   1.0373690872987335e-10
  9.7999999999999998e-01   1.0377869233518617e-10
  9.8999999999999999e-01   1.0382047937862306e-10
  1.0000000000000000e+00   1.0386226105787826e-10
