# ZND solution.
# Columns are: spatial coordinate; specific volume; density;
# flow velocity in lab frame; pressure; reaction progress variable.
 -3.4149999999999999e+01   7.9575353999164256e-01   1.2566705012842325e+00   2.0424646000835747e-01   6.6312832400551547e-01   9.9999999999900002e-01
 -3.4100000000000001e+01   7.9575353999164256e-01   1.2566705012842325e+00   2.0424646000835747e-01   6.6312832400551547e-01   9.9999999999900002e-01
 -3.4049999999999997e+01   7.9575353999164256e-01   1.2566705012842325e+00   2.0424646000835747e-01   6.6312832400551547e-01   9.9999999999900002e-01
 -3.4000000000000000e+01   7.9575353999164256e-01   1.2566705012842325e+00   2.0424646000835747e-01   6.6312832400551547e-01   9.9999999999900002e-01
 -3.3949999999999996e+01   7.9575353999164256e-01   1.2566705012842325e+00   2.0424646000835747e-01   6.6312832400551547e-01   9.9999999999900002e-01
 -3.3899999999999999e+01   7.9575353999164256e-01   1.2566705012842325e+00   2.0424646000835747e-01   6.6312832400551547e-01   9.9999999999900002e-01
 -3.3850000000000001e+01   7.9575353999164256e-01   1.2566705012842325e+00   2.0424646000835747e-01   6.6312832400551547e-01   9.9999999999900002e-01
 -3.3799999999999997e+01   7.9575353999164256e-01   1.2566705012842325e+00   2.0424646000835747e-01   6.6312832400551547e-01   9.9999999999900002e-01
 -3.3750000000000000e+01   7.9575353999164256e-01   1.2566705012842325e+00   2.0424646000835747e-01   6.6312832400551547e-01   9.9999999999900002e-01
 -3.3699999999999996e+01   7.9575353999164256e-01   1.2566705012842325e+00   2.0424646000835747e-01   6.6312832400551547e-01   9.9999999999900002e-01
 -3.3649999999999999e+01   7.9575353674373894e-01   1.2566705064133894e+00   2.0424646325626111e-01   6.6312832725341919e-01   9.9999999999896849e-01
 -3.3600000000000001e+01   7.9575353271247551e-01   1.2566705127796443e+00   2.0424646728752444e-01   6.6312833128468263e-01   9.9999999999892675e-01
 -3.3549999999999997e+01   7.9575352826732870e-01   1.2566705197995125e+00   2.0424647173267135e-01   6.6312833572982943e-01   9.9999999999888356e-01
 -3.3500000000000000e+01   7.9575352391194343e-01   1.2566705266776275e+00   2.0424647608805654e-01   6.6312834008521460e-01   9.9999999999883871e-01
 -3.3449999999999996e+01   7.9575351964109209e-01   1.2566705334222448e+00   2.0424648035890786e-01   6.6312834435606594e-01   9.9999999999879208e-01
 -3.3399999999999999e+01   7.9575351529628602e-01   1.2566705402836531e+00   2.0424648470371393e-01   6.6312834870087212e-01   9.9999999999874323e-01
 -3.3350000000000001e+01   7.9575351073092238e-01   1.2566705474933706e+00   2.0424648926907762e-01   6.6312835326623576e-01   9.9999999999869249e-01
 -3.3299999999999997e+01   7.9575350595769068e-01   1.2566705550313577e+00   2.0424649404230935e-01   6.6312835803946735e-01   9.9999999999863975e-01
 -3.3250000000000000e+01   7.9575350113353138e-01   1.2566705626497710e+00   2.0424649886646856e-01   6.6312836286362675e-01   9.9999999999858491e-01
 -3.3199999999999996e+01   7.9575349640334847e-01   1.2566705701197747e+00   2.0424650359665159e-01   6.6312836759380955e-01   9.9999999999852796e-01
 -3.3149999999999999e+01   7.9575349148329411e-01   1.2566705778896274e+00   2.0424650851670595e-01   6.6312837251386403e-01   9.9999999999846867e-01
 -3.3100000000000001e+01   7.9575348652073152e-01   1.2566705857266103e+00   2.0424651347926845e-01   6.6312837747642650e-01   9.9999999999840705e-01
 -3.3049999999999997e+01   7.9575348138418700e-01   1.2566705938383491e+00   2.0424651861581294e-01   6.6312838261297102e-01   9.9999999999834299e-01
 -3.3000000000000000e+01   7.9575347608366742e-01   1.2566706022090410e+00   2.0424652391633261e-01   6.6312838791349071e-01   9.9999999999827616e-01
 -3.2949999999999996e+01   7.9575347050015710e-01   1.2566706110266377e+00   2.0424652949984290e-01   6.6312839349700103e-01   9.9999999999820666e-01
 -3.2899999999999999e+01   7.9575346528049629e-01   1.2566706192696360e+00   2.0424653471950377e-01   6.6312839871666185e-01   9.9999999999813449e-01
 -3.2850000000000001e+01   7.9575345978552758e-01   1.2566706279474062e+00   2.0424654021447236e-01   6.6312840421163044e-01   9.9999999999805955e-01
 -3.2799999999999997e+01   7.9575345390970365e-01   1.2566706372266312e+00   2.0424654609029630e-01   6.6312841008745449e-01   9.9999999999798117e-01
 -3.2750000000000000e+01   7.9575344826939454e-01   1.2566706461339263e+00   2.0424655173060549e-01   6.6312841572776349e-01   9.9999999999789990e-01
 -3.2699999999999996e+01   7.9575344226831290e-01   1.2566706556109613e+00   2.0424655773168707e-01   6.6312842172884512e-01   9.9999999999781519e-01
 -3.2649999999999999e+01   7.9575343627003225e-01   1.2566706650835728e+00   2.0424656372996777e-01   6.6312842772712577e-01   9.9999999999772726e-01
 -3.2600000000000001e+01   7.9575343016236788e-01   1.2566706747289258e+00   2.0424656983763209e-01   6.6312843383479025e-01   9.9999999999763545e-01
 -3.2549999999999997e+01   7.9575342384176984e-01   1.2566706847105482e+00   2.0424657615823014e-01   6.6312844015538819e-01   9.9999999999754019e-01
 -3.2500000000000000e+01   7.9575341742821692e-01   1.2566706948389672e+00   2.0424658257178302e-01   6.6312844656894110e-01   9.9999999999744127e-01
 -3.2449999999999996e+01   7.9575341092707852e-01   1.2566707051057031e+00   2.0424658907292143e-01   6.6312845307007950e-01   9.9999999999733813e-01
 -3.2399999999999999e+01   7.9575340423990959e-01   1.2566707156662225e+00   2.0424659576009035e-01   6.6312845975724843e-01   9.9999999999723088e-01
 -3.2350000000000001e+01   7.9575339747890217e-01   1.2566707263433494e+00   2.0424660252109778e-01   6.6312846651825585e-01   9.9999999999711942e-01
 -3.2299999999999997e+01   7.9575339064829476e-01   1.2566707371303902e+00   2.0424660935170527e-01   6.6312847334886327e-01   9.9999999999700340e-01
 -3.2250000000000000e+01   7.9575338345944036e-01   1.2566707484831827e+00   2.0424661654055973e-01   6.6312848053771767e-01   9.9999999999688272e-01
 -3.2199999999999996e+01   7.9575337641115063e-01   1.2566707596139925e+00   2.0424662358884937e-01   6.6312848758600740e-01   9.9999999999675726e-01
 -3.2149999999999999e+01   7.9575336893274939e-01   1.2566707714240439e+00   2.0424663106725058e-01   6.6312849506440874e-01   9.9999999999662659e-01
 -3.2100000000000001e+01   7.9575336160057231e-01   1.2566707830031751e+00   2.0424663839942764e-01   6.6312850239658572e-01   9.9999999999649081e-01
 -3.2049999999999997e+01   7.9575335377529854e-01   1.2566707953610154e+00   2.0424664622470154e-01   6.6312851022185948e-01   9.9999999999634948e-01
 -3.2000000000000000e+01   7.9575334601555969e-01   1.2566708076153621e+00   2.0424665398444028e-01   6.6312851798159833e-01   9.9999999999620248e-01
 -3.1949999999999999e+01   7.9575333814433835e-01   1.2566708200457641e+00   2.0424666185566170e-01   6.6312852585281967e-01   9.9999999999604949e-01
 -3.1899999999999999e+01   7.9575333016799576e-01   1.2566708326421765e+00   2.0424666983200429e-01   6.6312853382916226e-01   9.9999999999589040e-01
 -3.1849999999999998e+01   7.9575332175936631e-01   1.2566708459212657e+00   2.0424667824063369e-01   6.6312854223779172e-01   9.9999999999572486e-01
 -3.1799999999999997e+01   7.9575331327005683e-01   1.2566708593277669e+00   2.0424668672994320e-01   6.6312855072710120e-01   9.9999999999555267e-01
 -3.1750000000000000e+01   7.9575330486480811e-01   1.2566708726015177e+00   2.0424669513519189e-01   6.6312855913235003e-01   9.9999999999537359e-01
 -3.1699999999999999e+01   7.9575329606778988e-01   1.2566708864939597e+00   2.0424670393221014e-01   6.6312856792936814e-01   9.9999999999518707e-01
 -3.1649999999999999e+01   7.9575328705544812e-01   1.2566709007264458e+00   2.0424671294455191e-01   6.6312857694171001e-01   9.9999999999499312e-01
 -3.1599999999999998e+01   7.9575327806654328e-01   1.2566709149219200e+00   2.0424672193345678e-01   6.6312858593061486e-01   9.9999999999479150e-01
 -3.1549999999999997e+01   7.9575326872979946e-01   1.2566709296667096e+00   2.0424673127020060e-01   6.6312859526735868e-01   9.9999999999458167e-01
 -3.1500000000000000e+01   7.9575325921030160e-01   1.2566709447001085e+00   2.0424674078969846e-01   6.6312860478685642e-01   9.9999999999436340e-01
 -3.1449999999999999e+01   7.9575324951860482e-01   1.2566709600054482e+00   2.0424675048139515e-01   6.6312861447855331e-01   9.9999999999413625e-01
 -3.1399999999999999e+01   7.9575323959494315e-01   1.2566709756771122e+00   2.0424676040505693e-01   6.6312862440221498e-01   9.9999999999390010e-01
 -3.1349999999999998e+01   7.9575322958938499e-01   1.2566709914781093e+00   2.0424677041061506e-01   6.6312863440777314e-01   9.9999999999365430e-01
 -3.1299999999999997e+01   7.9575321930559850e-01   1.2566710077184913e+00   2.0424678069440153e-01   6.6312864469155952e-01   9.9999999999339872e-01
 -3.1250000000000000e+01   7.9575320889098355e-01   1.2566710241654806e+00   2.0424679110901642e-01   6.6312865510617447e-01   9.9999999999313272e-01
 -3.1199999999999999e+01   7.9575319815980283e-01   1.2566710411123982e+00   2.0424680184019708e-01   6.6312866583735519e-01   9.9999999999285616e-01
 -3.1149999999999999e+01   7.9575318725661670e-01   1.2566710583309511e+00   2.0424681274338330e-01   6.6312867674054143e-01   9.9999999999256850e-01
 -3.1099999999999998e+01   7.9575317619133412e-01   1.2566710758054906e+00   2.0424682380866585e-01   6.6312868780582390e-01   9.9999999999226918e-01
 -3.1049999999999997e+01   7.9575316485184611e-01   1.2566710937130621e+00   2.0424683514815387e-01   6.6312869914531203e-01   9.9999999999195777e-01
 -3.1000000000000000e+01   7.9575315331344876e-01   1.2566711119347560e+00   2.0424684668655124e-01   6.6312871068370938e-01   9.9999999999163391e-01
 -3.0949999999999999e+01   7.9575314158757160e-01   1.2566711304525227e+00   2.0424685841242837e-01   6.6312872240958642e-01   9.9999999999129685e-01
 -3.0899999999999999e+01   7.9575312951331412e-01   1.2566711495204601e+00   2.0424687048668583e-01   6.6312873448384391e-01   9.9999999999094624e-01
 -3.0849999999999998e+01   7.9575311722296094e-01   1.2566711689296612e+00   2.0424688277703898e-01   6.6312874677419720e-01   9.9999999999058176e-01
 -3.0799999999999997e+01   7.9575310472897542e-01   1.2566711886604436e+00   2.0424689527102452e-01   6.6312875926818260e-01   9.9999999999020239e-01
 -3.0750000000000000e+01   7.9575309198915056e-01   1.2566712087794616e+00   2.0424690801084941e-01   6.6312877200800746e-01   9.9999999998980782e-01
 -3.0699999999999999e+01   7.9575307896475767e-01   1.2566712293478768e+00   2.0424692103524231e-01   6.6312878503240036e-01   9.9999999998939726e-01
 -3.0649999999999999e+01   7.9575306572401072e-01   1.2566712502579636e+00   2.0424693427598919e-01   6.6312879827314730e-01   9.9999999998897005e-01
 -3.0599999999999998e+01   7.9575305222851855e-01   1.2566712715703505e+00   2.0424694777148139e-01   6.6312881176863947e-01   9.9999999998852585e-01
 -3.0549999999999997e+01   7.9575303839325950e-01   1.2566712934193058e+00   2.0424696160674050e-01   6.6312882560389863e-01   9.9999999998806355e-01
 -3.0500000000000000e+01   7.9575302433550688e-01   1.2566713156196290e+00   2.0424697566449312e-01   6.6312883966165126e-01   9.9999999998758282e-01
 -3.0449999999999999e+01   7.9575301002015297e-01   1.2566713382267625e+00   2.0424698997984705e-01   6.6312885397700505e-01   9.9999999998708267e-01
 -3.0399999999999999e+01   7.9575299536806376e-01   1.2566713613656770e+00   2.0424700463193621e-01   6.6312886862909426e-01   9.9999999998656242e-01
 -3.0349999999999998e+01   7.9575298044465792e-01   1.2566713849330620e+00   2.0424701955534214e-01   6.6312888355250021e-01   9.9999999998602118e-01
 -3.0299999999999997e+01   7.9575296522039574e-01   1.2566714089755668e+00   2.0424703477960421e-01   6.6312889877676229e-01   9.9999999998545830e-01
 -3.0250000000000000e+01   7.9575294962407239e-01   1.2566714336056404e+00   2.0424705037592761e-01   6.6312891437308563e-01   9.9999999998487255e-01
 -3.0199999999999999e+01   7.9575293380731837e-01   1.2566714585838241e+00   2.0424706619268168e-01   6.6312893018983976e-01   9.9999999998426325e-01
 -3.0149999999999999e+01   7.9575291765516931e-01   1.2566714840916724e+00   2.0424708234483074e-01   6.6312894634198882e-01   9.9999999998362932e-01
 -3.0099999999999998e+01   7.9575290118690811e-01   1.2566715100987333e+00   2.0424709881309194e-01   6.6312896281025002e-01   9.9999999998296996e-01
 -3.0049999999999997e+01   7.9575288437981095e-01   1.2566715366408931e+00   2.0424711562018902e-01   6.6312897961734707e-01   9.9999999998228395e-01
 -3.0000000000000000e+01   7.9575286721327221e-01   1.2566715637506927e+00   2.0424713278672776e-01   6.6312899678388582e-01   9.9999999998157030e-01
 -2.9949999999999999e+01   7.9575284974729787e-01   1.2566715913333688e+00   2.0424715025270215e-01   6.6312901424986015e-01   9.9999999998082789e-01
 -2.9899999999999999e+01   7.9575283184493339e-01   1.2566716196052039e+00   2.0424716815506666e-01   6.6312903215222463e-01   9.9999999998005573e-01
 -2.9849999999999998e+01   7.9575281368249051e-01   1.2566716482877625e+00   2.0424718631750940e-01   6.6312905031466751e-01   9.9999999997925237e-01
 -2.9799999999999997e+01   7.9575279520080722e-01   1.2566716774744739e+00   2.0424720479919276e-01   6.6312906879635081e-01   9.9999999997841671e-01
 -2.9750000000000000e+01   7.9575277620022866e-01   1.2566717074806388e+00   2.0424722379977134e-01   6.6312908779692936e-01   9.9999999997754729e-01
 -2.9699999999999999e+01   7.9575275692435787e-01   1.2566717379215531e+00   2.0424724307564215e-01   6.6312910707280015e-01   9.9999999997664291e-01
 -2.9649999999999999e+01   7.9575273721442397e-01   1.2566717690479516e+00   2.0424726278557603e-01   6.6312912678273406e-01   9.9999999997570210e-01
 -2.9599999999999998e+01   7.9575271719811569e-01   1.2566718006581856e+00   2.0424728280188434e-01   6.6312914679904233e-01   9.9999999997472344e-01
 -2.9549999999999997e+01   7.9575269669160398e-01   1.2566718330425621e+00   2.0424730330839608e-01   6.6312916730555405e-01   9.9999999997370514e-01
 -2.9500000000000000e+01   7.9575267578892905e-01   1.2566718660525711e+00   2.0424732421107089e-01   6.6312918820822897e-01   9.9999999997264599e-01
 -2.9449999999999999e+01   7.9575265451289279e-01   1.2566718996522028e+00   2.0424734548710718e-01   6.6312920948426524e-01   9.9999999997154354e-01
 -2.9399999999999999e+01   7.9575263275840680e-01   1.2566719340074159e+00   2.0424736724159323e-01   6.6312923123875134e-01   9.9999999997039668e-01
 -2.9349999999999998e+01   7.9575261058403246e-01   1.2566719690257286e+00   2.0424738941596754e-01   6.6312925341312556e-01   9.9999999996920419e-01
 -2.9299999999999997e+01   7.9575258798352566e-01   1.2566720047170024e+00   2.0424741201647431e-01   6.6312927601363247e-01   9.9999999996796385e-01
 -2.9250000000000000e+01   7.9575256492176494e-01   1.2566720411367016e+00   2.0424743507823509e-01   6.6312929907539309e-01   9.9999999996667344e-01
 -2.9199999999999999e+01   7.9575254142528717e-01   1.2566720782429188e+00   2.0424745857471280e-01   6.6312932257187085e-01   9.9999999996533095e-01
 -2.9149999999999999e+01   7.9575251746175713e-01   1.2566721160867189e+00   2.0424748253824285e-01   6.6312934653540090e-01   9.9999999996393429e-01
 -2.9099999999999998e+01   7.9575249297371997e-01   1.2566721547588358e+00   2.0424750702627995e-01   6.6312937102343805e-01   9.9999999996248157e-01
 -2.9049999999999997e+01   7.9575246801892063e-01   1.2566721941680776e+00   2.0424753198107942e-01   6.6312939597823739e-01   9.9999999996097022e-01
 -2.9000000000000000e+01   7.9575244257019051e-01   1.2566722343573498e+00   2.0424755742980946e-01   6.6312942142696751e-01   9.9999999995939803e-01
 -2.8949999999999999e+01   7.9575241662945695e-01   1.2566722753236088e+00   2.0424758337054300e-01   6.6312944736770119e-01   9.9999999995776256e-01
 -2.8899999999999999e+01   7.9575239019903776e-01   1.2566723170631944e+00   2.0424760980096224e-01   6.6312947379812026e-01   9.9999999995606137e-01
 -2.8849999999999998e+01   7.9575236315430931e-01   1.2566723597729157e+00   2.0424763684569069e-01   6.6312950084284872e-01   9.9999999995429134e-01
 -2.8799999999999997e+01   7.9575233563048930e-01   1.2566724032392333e+00   2.0424766436951072e-01   6.6312952836666872e-01   9.9999999995245004e-01
 -2.8750000000000000e+01   7.9575230750829140e-01   1.2566724476505278e+00   2.0424769249170863e-01   6.6312955648886662e-01   9.9999999995053446e-01
 -2.8699999999999999e+01   7.9575227889414490e-01   1.2566724928387232e+00   2.0424772110585512e-01   6.6312958510301312e-01   9.9999999994854194e-01
 -2.8649999999999999e+01   7.9575224967516800e-01   1.2566725389820859e+00   2.0424775032483197e-01   6.6312961432199002e-01   9.9999999994646915e-01
 -2.8599999999999998e+01   7.9575221984002042e-01   1.2566725860985244e+00   2.0424778015997960e-01   6.6312964415713760e-01   9.9999999994431266e-01
 -2.8549999999999997e+01   7.9575218944678938e-01   1.2566726340963066e+00   2.0424781055321065e-01   6.6312967455036875e-01   9.9999999994207001e-01
 -2.8500000000000000e+01   7.9575215848322900e-01   1.2566726829947714e+00   2.0424784151677097e-01   6.6312970551392914e-01   9.9999999993973643e-01
 -2.8449999999999999e+01   7.9575212685167795e-01   1.2566727329481486e+00   2.0424787314832207e-01   6.6312973714548007e-01   9.9999999993730904e-01
 -2.8399999999999999e+01   7.9575209463319041e-01   1.2566727838284355e+00   2.0424790536680962e-01   6.6312976936396761e-01   9.9999999993478372e-01
 -2.8349999999999998e+01   7.9575206171522128e-01   1.2566728358133663e+00   2.0424793828477877e-01   6.6312980228193674e-01   9.9999999993215660e-01
 -2.8299999999999997e+01   7.9575202815851354e-01   1.2566728888070147e+00   2.0424797184148652e-01   6.6312983583864449e-01   9.9999999992942379e-01
 -2.8250000000000000e+01   7.9575199395963880e-01   1.2566729428147947e+00   2.0424800604036120e-01   6.6312987003751933e-01   9.9999999992658106e-01
 -2.8199999999999999e+01   7.9575195903734874e-01   1.2566729979650164e+00   2.0424804096265120e-01   6.6312990495980928e-01   9.9999999992362376e-01
 -2.8149999999999999e+01   7.9575192345258050e-01   1.2566730541614466e+00   2.0424807654741944e-01   6.6312994054457752e-01   9.9999999992054711e-01
 -2.8099999999999998e+01   7.9575188712983824e-01   1.2566731115233105e+00   2.0424811287016167e-01   6.6312997686731989e-01   9.9999999991734656e-01
 -2.8049999999999997e+01   7.9575185011158178e-01   1.2566731699835547e+00   2.0424814988841819e-01   6.6313001388557635e-01   9.9999999991401700e-01
 -2.8000000000000000e+01   7.9575181234681047e-01   1.2566732296227212e+00   2.0424818765318956e-01   6.6313005165034755e-01   9.9999999991055333e-01
 -2.7949999999999999e+01   7.9575177380708606e-01   1.2566732904857210e+00   2.0424822619291397e-01   6.6313009019007196e-01   9.9999999990695021e-01
 -2.7899999999999999e+01   7.9575173451950432e-01   1.2566733525297638e+00   2.0424826548049563e-01   6.6313012947765371e-01   9.9999999990320187e-01
 -2.7849999999999998e+01   7.9575169444131844e-01   1.2566734158223569e+00   2.0424830555868162e-01   6.6313016955583970e-01   9.9999999989930255e-01
 -2.7799999999999997e+01   7.9575165358437117e-01   1.2566734803447983e+00   2.0424834641562881e-01   6.6313021041278686e-01   9.9999999989524635e-01
 -2.7750000000000000e+01   7.9575161189451249e-01   1.2566735461826037e+00   2.0424838810548748e-01   6.6313025210264565e-01   9.9999999989102661e-01
 -2.7699999999999999e+01   7.9575156935498870e-01   1.2566736133622314e+00   2.0424843064501130e-01   6.6313029464216933e-01   9.9999999988663701e-01
 -2.7649999999999999e+01   7.9575152599883980e-01   1.2566736818315043e+00   2.0424847400116025e-01   6.6313033799831833e-01   9.9999999988207078e-01
 -2.7599999999999998e+01   7.9575148176424959e-01   1.2566737516880444e+00   2.0424851823575033e-01   6.6313038223290843e-01   9.9999999987732036e-01
