# First column is time, second column is the perturbation of detonation velocity.
  0.0000000000000000e+00   1.0000000000000000e-10
  5.0000000000000001e-03   1.0025443503051649e-10
  1.0000000000000000e-02   1.0042537334683137e-10
  1.4999999999999999e-02   1.0063142792433906e-10
  2.0000000000000000e-02   1.0088892578956516e-10
  2.5000000000000001e-02   1.0117174604907067e-10
  2.9999999999999999e-02   1.0144661506754196e-10
  3.5000000000000003e-02   1.0169385019996340e-10
  4.0000000000000001e-02   1.0191463127498468e-10
  4.4999999999999998e-02   1.0212633621718110e-10
  5.0000000000000003e-02   1.0235076512415050e-10
  5.5000000000000000e-02   1.0260211379042604e-10
  5.9999999999999998e-02   1.0288058036183899e-10
  6.5000000000000002e-02   1.0317394583221107e-10
  7.0000000000000007e-02   1.0346525732555111e-10
  7.4999999999999997e-02   1.0374197343272702e-10
  8.0000000000000002e-02   1.0400179349822577e-10
  8.5000000000000006e-02   1.0425264262506699e-10
  8.9999999999999997e-02   1.0450751841013937e-10
  9.5000000000000001e-02   1.0477739524631952e-10
  1.0000000000000001e-01   1.0506597403430745e-10
  1.0500000000000000e-01   1.0536869036774781e-10
  1.1000000000000000e-01   1.0567597492545338e-10
  1.1500000000000000e-01   1.0597863099607256e-10
  1.2000000000000000e-01   1.0627238688533889e-10
  1.2500000000000000e-01   1.0655944262126951e-10
  1.3000000000000000e-01   1.0684659342203463e-10
  1.3500000000000001e-01   1.0714127538988487e-10
  1.4000000000000001e-01   1.0744775923562677e-10
  1.4499999999999999e-01   1.0776537950602160e-10
  1.4999999999999999e-01   1.0808944373930697e-10
  1.5500000000000000e-01   1.0841404785576182e-10
  1.6000000000000000e-01   1.0873516162286868e-10
  1.6500000000000001e-01   1.0905240705832320e-10
  1.7000000000000001e-01   1.0936879424403912e-10
  1.7500000000000002e-01   1.0968878900245577e-10
  1.7999999999999999e-01   1.1001587767663651e-10
  1.8500000000000000e-01   1.1035090782383973e-10
  1.9000000000000000e-01   1.1069194348020313e-10
  1.9500000000000001e-01   1.1103552777957002e-10
  2.0000000000000001e-01   1.1137855387585844e-10
  2.0500000000000002e-01   1.1171973541265785e-10
  2.0999999999999999e-01   1.1205998798494167e-10
  2.1500000000000000e-01   1.1240165995855933e-10
  2.2000000000000000e-01   1.1274713439183468e-10
  2.2500000000000001e-01   1.1309757674104357e-10
  2.3000000000000001e-01   1.1345243810788824e-10
  2.3500000000000001e-01   1.1380987315725190e-10
  2.3999999999999999e-01   1.1416775500847825e-10
  2.4500000000000000e-01   1.1452470821390958e-10
  2.5000000000000000e-01   1.1488064056083505e-10
  2.5500000000000000e-01   1.1523656694904523e-10
  2.6000000000000001e-01   1.1559389753621883e-10
  2.6500000000000001e-01   1.1595361010993256e-10
  2.7000000000000002e-01   1.1631573476024773e-10
  2.7500000000000002e-01   1.1667937176615992e-10
  2.8000000000000003e-01   1.1704317043323902e-10
  2.8500000000000003e-01   1.1740597441387217e-10
  2.8999999999999998e-01   1.1776729063138978e-10
  2.9499999999999998e-01   1.1812736792841107e-10
  2.9999999999999999e-01   1.1848689233294522e-10
  3.0499999999999999e-01   1.1884649696326418e-10
  3.1000000000000000e-01   1.1920635390463150e-10
  3.1500000000000000e-01   1.1956604264176364e-10
  3.2000000000000001e-01   1.1992472809962711e-10
  3.2500000000000001e-01   1.2028152243720436e-10
  3.3000000000000002e-01   1.2063582769955803e-10
  3.3500000000000002e-01   1.2098749011717243e-10
  3.4000000000000002e-01   1.2133671124514874e-10
  3.4500000000000003e-01   1.2168378940330028e-10
  3.5000000000000003e-01   1.2202884114830965e-10
  3.5499999999999998e-01   1.2237164476613252e-10
  3.5999999999999999e-01   1.2271166986204013e-10
  3.6499999999999999e-01   1.2304825637884319e-10
  3.7000000000000000e-01   1.2338083593897595e-10
  3.7500000000000000e-01   1.2370907994892541e-10
  3.8000000000000000e-01   1.2403290930411151e-10
  3.8500000000000001e-01   1.2435237757175674e-10
  3.9000000000000001e-01   1.2466750147742499e-10
  3.9500000000000002e-01   1.2497813015415897e-10
  4.0000000000000002e-01   1.2528391436195035e-10
  4.0500000000000003e-01   1.2558437957700045e-10
  4.1000000000000003e-01   1.2587905438693045e-10
  4.1500000000000004e-01   1.2616758370063275e-10
  4.1999999999999998e-01   1.2644977224444525e-10
  4.2499999999999999e-01   1.2672554518191901e-10
  4.2999999999999999e-01   1.2699485573892609e-10
  4.3500000000000000e-01   1.2725759269015157e-10
  4.4000000000000000e-01   1.2751353434702630e-10
  4.4500000000000001e-01   1.2776236685708370e-10
  4.5000000000000001e-01   1.2800375029810274e-10
  4.5500000000000002e-01   1.2823739406536430e-10
  4.6000000000000002e-01   1.2846310294945697e-10
  4.6500000000000002e-01   1.2868077453925601e-10
  4.7000000000000003e-01   1.2889035523439860e-10
  4.7500000000000003e-01   1.2909178199227728e-10
  4.7999999999999998e-01   1.2928494084121541e-10
  4.8499999999999999e-01   1.2946966109914295e-10
  4.8999999999999999e-01   1.2964574409837311e-10
  4.9500000000000000e-01   1.2981300806925148e-10
  5.0000000000000000e-01   1.2997132490864111e-10
  5.0500000000000000e-01   1.3012063148909956e-10
  5.1000000000000001e-01   1.3026091295605859e-10
  5.1500000000000001e-01   1.3039216977505493e-10
  5.2000000000000002e-01   1.3051438701887950e-10
  5.2500000000000002e-01   1.3062752105733210e-10
  5.3000000000000003e-01   1.3073150828886043e-10
  5.3500000000000003e-01   1.3082628895607102e-10
  5.4000000000000004e-01   1.3091183234938903e-10
  5.4500000000000004e-01   1.3098815062146993e-10
  5.5000000000000004e-01   1.3105529564097790e-10
  5.5500000000000005e-01   1.3111334245416489e-10
  5.6000000000000005e-01   1.3116236919095734e-10
  5.6500000000000006e-01   1.3120244385150631e-10
  5.7000000000000006e-01   1.3123362371208753e-10
  5.7500000000000007e-01   1.3125596607594379e-10
  5.7999999999999996e-01   1.3126954355125568e-10
  5.8499999999999996e-01   1.3127445556586565e-10
  5.8999999999999997e-01   1.3127083068095070e-10
  5.9499999999999997e-01   1.3125881950229965e-10
  5.9999999999999998e-01   1.3123858270384674e-10
  6.0499999999999998e-01   1.3121028057450551e-10
  6.0999999999999999e-01   1.3117406896148025e-10
  6.1499999999999999e-01   1.3113010268871320e-10
  6.2000000000000000e-01   1.3107854364565081e-10
  6.2500000000000000e-01   1.3101956872403981e-10
  6.3000000000000000e-01   1.3095337341777036e-10
  6.3500000000000001e-01   1.3088016955891142e-10
  6.4000000000000001e-01   1.3080017877156271e-10
  6.4500000000000002e-01   1.3071362517437660e-10
  6.5000000000000002e-01   1.3062073081434096e-10
  6.5500000000000003e-01   1.3052171552988933e-10
  6.6000000000000003e-01   1.3041680052009551e-10
  6.6500000000000004e-01   1.3030621312638058e-10
  6.7000000000000004e-01   1.3019019002285206e-10
  6.7500000000000004e-01   1.3006897714313409e-10
  6.8000000000000005e-01   1.2994282650753397e-10
  6.8500000000000005e-01   1.2981199165176239e-10
  6.9000000000000006e-01   1.2967672386280758e-10
  6.9500000000000006e-01   1.2953727076888086e-10
  7.0000000000000007e-01   1.2939387747623834e-10
  7.0499999999999996e-01   1.2924678915643559e-10
  7.0999999999999996e-01   1.2909625340080041e-10
  7.1499999999999997e-01   1.2894252098485639e-10
  7.1999999999999997e-01   1.2878584465245779e-10
  7.2499999999999998e-01   1.2862647657714165e-10
  7.2999999999999998e-01   1.2846466575240453e-10
  7.3499999999999999e-01   1.2830065645948097e-10
  7.3999999999999999e-01   1.2813468829501903e-10
  7.4500000000000000e-01   1.2796699741205833e-10
  7.5000000000000000e-01   1.2779781807020965e-10
  7.5500000000000000e-01   1.2762738355175573e-10
  7.6000000000000001e-01   1.2745592593762056e-10
  7.6500000000000001e-01   1.2728367487534572e-10
  7.7000000000000002e-01   1.2711085596701492e-10
  7.7500000000000002e-01   1.2693768952717542e-10
  7.8000000000000003e-01   1.2676439019245825e-10
  7.8500000000000003e-01   1.2659116738652719e-10
  7.9000000000000004e-01   1.2641822622047177e-10
  7.9500000000000004e-01   1.2624576824541887e-10
  8.0000000000000004e-01   1.2607399162194011e-10
  8.0500000000000005e-01   1.2590309061891919e-10
  8.1000000000000005e-01   1.2573325470494730e-10
  8.1500000000000006e-01   1.2556466767238631e-10
  8.2000000000000006e-01   1.2539750716995673e-10
  8.2500000000000007e-01   1.2523194477493457e-10
  8.3000000000000007e-01   1.2506814645478759e-10
  8.3499999999999996e-01   1.2490627309550656e-10
  8.3999999999999997e-01   1.2474648078352051e-10
  8.4499999999999997e-01   1.2458892069348608e-10
  8.4999999999999998e-01   1.2443373865411703e-10
  8.5499999999999998e-01   1.2428107462201777e-10
  8.5999999999999999e-01   1.2413106231754034e-10
  8.6499999999999999e-01   1.2398382917080590e-10
  8.7000000000000000e-01   1.2383949655859644e-10
  8.7500000000000000e-01   1.2369818017493012e-10
  8.8000000000000000e-01   1.2355999033525704e-10
  8.8500000000000001e-01   1.2342503207649966e-10
  8.9000000000000001e-01   1.2329340503889741e-10
  8.9500000000000002e-01   1.2316520323150650e-10
  9.0000000000000002e-01   1.2304051483412179e-10
  9.0500000000000003e-01   1.2291942215649561e-10
  9.1000000000000003e-01   1.2280200178679059e-10
  9.1500000000000004e-01   1.2268832486647702e-10
  9.2000000000000004e-01   1.2257845737645777e-10
  9.2500000000000004e-01   1.2247246033028925e-10
  9.3000000000000005e-01   1.2237038983185842e-10
  9.3500000000000005e-01   1.2227229703001940e-10
  9.4000000000000006e-01   1.2217822805223710e-10
  9.4500000000000006e-01   1.2208822400149104e-10
  9.5000000000000007e-01   1.2200232106008594e-10
  9.5500000000000007e-01   1.2192055068603271e-10
  9.5999999999999996e-01   1.2184293984343485e-10
  9.6499999999999997e-01   1.2176951119837848e-10
  9.6999999999999997e-01   1.2170028323713230e-10
  9.7499999999999998e-01   1.2163527030720064e-10
  9.7999999999999998e-01   1.2157448261990124e-10
  9.8499999999999999e-01   1.2151792626727505e-10
  9.8999999999999999e-01   1.2146560329208882e-10
  9.9500000000000000e-01   1.2141751181788207e-10
  1.0000000000000000e+00   1.2137364621449777e-10
  1.0050000000000001e+00   1.2133399725910025e-10
  1.0100000000000000e+00   1.2129855225916610e-10
  1.0150000000000001e+00   1.2126729512650772e-10
  1.0200000000000000e+00   1.2124020641686244e-10
  1.0249999999999999e+00   1.2121726336486055e-10
  1.0300000000000000e+00   1.2119843994283614e-10
  1.0349999999999999e+00   1.2118370695661765e-10
  1.0400000000000000e+00   1.2117303217144835e-10
  1.0449999999999999e+00   1.2116638044709356e-10
  1.0500000000000000e+00   1.2116371385933156e-10
  1.0549999999999999e+00   1.2116499179485803e-10
  1.0600000000000001e+00   1.2117017102183251e-10
  1.0649999999999999e+00   1.2117920575058644e-10
  1.0700000000000001e+00   1.2119204770256947e-10
  1.0750000000000000e+00   1.2120864619966351e-10
  1.0800000000000001e+00   1.2122894827462644e-10
  1.0850000000000000e+00   1.2125289879295444e-10
  1.0900000000000001e+00   1.2128044057199094e-10
  1.0950000000000000e+00   1.2131151448616719e-10
  1.1000000000000001e+00   1.2134605955539681e-10
  1.1050000000000000e+00   1.2138401302218440e-10
  1.1100000000000001e+00   1.2142531042761009e-10
  1.1150000000000000e+00   1.2146988569518981e-10
  1.1200000000000001e+00   1.2151767122594352e-10
  1.1250000000000000e+00   1.2156859800121705e-10
  1.1300000000000001e+00   1.2162259568542705e-10
  1.1350000000000000e+00   1.2167959272086015e-10
  1.1400000000000001e+00   1.2173951641046792e-10
  1.1450000000000000e+00   1.2180229298991029e-10
  1.1500000000000001e+00   1.2186784769410004e-10
  1.1550000000000000e+00   1.2193610482434961e-10
  1.1599999999999999e+00   1.2200698781989817e-10
  1.1650000000000000e+00   1.2208041933365035e-10
  1.1699999999999999e+00   1.2215632130858106e-10
  1.1750000000000000e+00   1.2223461505008918e-10
  1.1799999999999999e+00   1.2231522129095905e-10
  1.1850000000000001e+00   1.2239806024853076e-10
  1.1899999999999999e+00   1.2248305167654460e-10
  1.1950000000000001e+00   1.2257011491549067e-10
  1.2000000000000000e+00   1.2265916894466392e-10
  1.2050000000000001e+00   1.2275013243705177e-10
  1.2100000000000000e+00   1.2284292381587590e-10
  1.2150000000000001e+00   1.2293746131025109e-10
  1.2200000000000000e+00   1.2303366300757477e-10
  1.2250000000000001e+00   1.2313144690166152e-10
  1.2300000000000000e+00   1.2323073093742563e-10
  1.2350000000000001e+00   1.2333143305414646e-10
  1.2400000000000000e+00   1.2343347122945533e-10
  1.2450000000000001e+00   1.2353676352523980e-10
  1.2500000000000000e+00   1.2364122813524613e-10
  1.2550000000000001e+00   1.2374678343303122e-10
  1.2600000000000000e+00   1.2385334801859208e-10
  1.2650000000000001e+00   1.2396084076253725e-10
  1.2700000000000000e+00   1.2406918084767867e-10
  1.2750000000000001e+00   1.2417828780885024e-10
  1.2800000000000000e+00   1.2428808157212812e-10
  1.2849999999999999e+00   1.2439848249432427e-10
  1.2900000000000000e+00   1.2450941140287226e-10
  1.2949999999999999e+00   1.2462078963545353e-10
  1.3000000000000000e+00   1.2473253907831045e-10
  1.3049999999999999e+00   1.2484458220232068e-10
  1.3100000000000001e+00   1.2495684209644138e-10
  1.3149999999999999e+00   1.2506924249875988e-10
  1.3200000000000001e+00   1.2518170782579323e-10
  1.3250000000000000e+00   1.2529416320069092e-10
  1.3300000000000001e+00   1.2540653448065991e-10
  1.3350000000000000e+00   1.2551874828347260e-10
  1.3400000000000001e+00   1.2563073201257981e-10
  1.3450000000000000e+00   1.2574241388030519e-10
  1.3500000000000001e+00   1.2585372292883431e-10
  1.3550000000000000e+00   1.2596458904908919e-10
  1.3600000000000001e+00   1.2607494299789687e-10
  1.3650000000000000e+00   1.2618471641397611e-10
  1.3700000000000001e+00   1.2629384183314220e-10
  1.3750000000000000e+00   1.2640225270287109e-10
  1.3800000000000001e+00   1.2650988339610779e-10
  1.3850000000000000e+00   1.2661666922408753e-10
  1.3900000000000001e+00   1.2672254644799801e-10
  1.3950000000000000e+00   1.2682745228949503e-10
  1.4000000000000001e+00   1.2693132494028801e-10
  1.4050000000000000e+00   1.2703410357111951e-10
  1.4099999999999999e+00   1.2713572834043531e-10
  1.4150000000000000e+00   1.2723614040289841e-10
  1.4199999999999999e+00   1.2733528191772559e-10
  1.4250000000000000e+00   1.2743309605669901e-10
  1.4299999999999999e+00   1.2752952701168684e-10
  1.4350000000000001e+00   1.2762452000157965e-10
  1.4399999999999999e+00   1.2771802127866437e-10
  1.4450000000000001e+00   1.2780997813454715e-10
  1.4500000000000000e+00   1.2790033890575330e-10
  1.4550000000000001e+00   1.2798905297907252e-10
  1.4600000000000000e+00   1.2807607079661792e-10
  1.4650000000000001e+00   1.2816134386047965e-10
  1.4700000000000000e+00   1.2824482473681913e-10
  1.4750000000000001e+00   1.2832646705927860e-10
  1.4800000000000000e+00   1.2840622553165143e-10
  1.4850000000000001e+00   1.2848405592983052e-10
  1.4900000000000000e+00   1.2855991510309382e-10
  1.4950000000000001e+00   1.2863376097477874e-10
  1.5000000000000000e+00   1.2870555254235576e-10
  1.5050000000000001e+00   1.2877524987686546e-10
  1.5100000000000000e+00   1.2884281412165286e-10
  1.5150000000000001e+00   1.2890820749034703e-10
  1.5200000000000000e+00   1.2897139326407089e-10
  1.5250000000000001e+00   1.2903233578792084e-10
  1.5300000000000000e+00   1.2909100046679159e-10
  1.5350000000000001e+00   1.2914735376063554e-10
  1.5400000000000000e+00   1.2920136317922951e-10
  1.5449999999999999e+00   1.2925299727649363e-10
  1.5500000000000000e+00   1.2930222564438320e-10
  1.5549999999999999e+00   1.2934901890636696e-10
  1.5600000000000001e+00   1.2939334871051912e-10
  1.5649999999999999e+00   1.2943518772227577e-10
  1.5700000000000001e+00   1.2947450961692855e-10
  1.5750000000000000e+00   1.2951128907193456e-10
  1.5800000000000001e+00   1.2954550175911403e-10
  1.5850000000000000e+00   1.2957712433678253e-10
  1.5900000000000001e+00   1.2960613444184324e-10
  1.5950000000000000e+00   1.2963251068184564e-10
  1.6000000000000001e+00   1.2965623262701603e-10
  1.6050000000000000e+00   1.2967728080226910e-10
  1.6100000000000001e+00   1.2969563667921903e-10
  1.6150000000000000e+00   1.2971128266821306e-10
  1.6200000000000001e+00   1.2972420211040568e-10
  1.6250000000000000e+00   1.2973437926987750e-10
  1.6300000000000001e+00   1.2974179932578810e-10
  1.6350000000000000e+00   1.2974644836453928e-10
  1.6400000000000001e+00   1.2974831337192015e-10
  1.6450000000000000e+00   1.2974738222520839e-10
  1.6500000000000001e+00   1.2974364368521047e-10
  1.6550000000000000e+00   1.2973708738822870e-10
  1.6600000000000001e+00   1.2972770383794934e-10
  1.6650000000000000e+00   1.2971548439724165e-10
  1.6699999999999999e+00   1.2970042127985496e-10
  1.6750000000000000e+00   1.2968250754199732e-10
  1.6799999999999999e+00   1.2966173707377816e-10
  1.6850000000000001e+00   1.2963810459050177e-10
  1.6899999999999999e+00   1.2961160562380776e-10
  1.6950000000000001e+00   1.2958223651266181e-10
  1.7000000000000000e+00   1.2954999439420716e-10
  1.7050000000000001e+00   1.2951487719449099e-10
  1.7100000000000000e+00   1.2947688361907871e-10
  1.7150000000000001e+00   1.2943601314356905e-10
  1.7200000000000000e+00   1.2939226600402238e-10
  1.7250000000000001e+00   1.2934564318731512e-10
  1.7300000000000000e+00   1.2929614642143714e-10
  1.7350000000000001e+00   1.2924377816575255e-10
  1.7400000000000000e+00   1.2918854160124734e-10
  1.7450000000000001e+00   1.2913044062078645e-10
  1.7500000000000000e+00   1.2906947981940205e-10
  1.7550000000000001e+00   1.2900566448462959e-10
  1.7600000000000000e+00   1.2893900058690653e-10
  1.7650000000000001e+00   1.2886949477004202e-10
  1.7700000000000000e+00   1.2879715434176793e-10
  1.7750000000000001e+00   1.2872198726437583e-10
  1.7800000000000000e+00   1.2864400214544793e-10
  1.7850000000000001e+00   1.2856320822868438e-10
  1.7900000000000000e+00   1.2847961538482701e-10
  1.7949999999999999e+00   1.2839323410267770e-10
  1.8000000000000000e+00   1.2830407548020274e-10
  1.8049999999999999e+00   1.2821215121571265e-10
  1.8100000000000001e+00   1.2811747359910521e-10
  1.8149999999999999e+00   1.2802005550315822e-10
  1.8200000000000001e+00   1.2791991037485713e-10
  1.8250000000000000e+00   1.2781705222674541e-10
  1.8300000000000001e+00   1.2771149562828111e-10
  1.8350000000000000e+00   1.2760325569718781e-10
  1.8400000000000001e+00   1.2749234809078204e-10
  1.8450000000000000e+00   1.2737878899726464e-10
  1.8500000000000001e+00   1.2726259512695996e-10
  1.8550000000000000e+00   1.2714378370349168e-10
  1.8600000000000001e+00   1.2702237245488364e-10
  1.8650000000000000e+00   1.2689837960457889e-10
  1.8700000000000001e+00   1.2677182386236964e-10
  1.8750000000000000e+00   1.2664272441523460e-10
  1.8800000000000001e+00   1.2651110091808050e-10
  1.8850000000000000e+00   1.2637697348438734e-10
  1.8900000000000001e+00   1.2624036267675584e-10
  1.8950000000000000e+00   1.2610128949736012e-10
  1.9000000000000001e+00   1.2595977537830790e-10
  1.9050000000000000e+00   1.2581584217191347e-10
  1.9100000000000001e+00   1.2566951214088904e-10
  1.9150000000000000e+00   1.2552080794846096e-10
  1.9199999999999999e+00   1.2536975264841733e-10
  1.9250000000000000e+00   1.2521636967509338e-10
  1.9299999999999999e+00   1.2506068283330074e-10
  1.9350000000000001e+00   1.2490271628820616e-10
  1.9399999999999999e+00   1.2474249455516476e-10
  1.9450000000000001e+00   1.2458004248951172e-10
  1.9500000000000000e+00   1.2441538527631719e-10
  1.9550000000000001e+00   1.2424854842010640e-10
  1.9600000000000000e+00   1.2407955773454656e-10
  1.9650000000000001e+00   1.2390843933210172e-10
  1.9700000000000000e+00   1.2373521961365427e-10
  1.9750000000000001e+00   1.2355992525809081e-10
  1.9800000000000000e+00   1.2338258321185090e-10
  1.9850000000000001e+00   1.2320322067843391e-10
