# First column is time, second column is the perturbation of detonation velocity.
  0.0000000000000000e+00   1.0000000000000000e-10
  1.0000000000000000e-02   1.0005804854204544e-10
  2.0000000000000000e-02   1.0011343355608228e-10
  2.9999999999999999e-02   1.0016698572679232e-10
  4.0000000000000001e-02   1.0021946758552519e-10
  5.0000000000000003e-02   1.0027155464858017e-10
  5.9999999999999998e-02   1.0032381852964119e-10
  7.0000000000000007e-02   1.0037671375946073e-10
  8.0000000000000002e-02   1.0043056973553307e-10
  8.9999999999999997e-02   1.0048558878896919e-10
  1.0000000000000001e-01   1.0054185083387987e-10
  1.1000000000000000e-01   1.0059932450282511e-10
  1.2000000000000000e-01   1.0065788412012189e-10
  1.3000000000000000e-01   1.0071733137147632e-10
  1.4000000000000001e-01   1.0077742013620455e-10
  1.4999999999999999e-01   1.0083788269035897e-10
  1.6000000000000000e-01   1.0089845538613784e-10
  1.7000000000000001e-01   1.0095890197177628e-10
  1.7999999999999999e-01   1.0101903292911140e-10
  1.9000000000000000e-01   1.0107871955222936e-10
  2.0000000000000001e-01   1.0113790193785669e-10
  2.0999999999999999e-01   1.0119659056612681e-10
  2.2000000000000000e-01   1.0125486167430315e-10
  2.3000000000000001e-01   1.0131284712085719e-10
  2.3999999999999999e-01   1.0137071986144586e-10
  2.5000000000000000e-01   1.0142867647738125e-10
  2.6000000000000001e-01   1.0148691838664293e-10
  2.7000000000000002e-01   1.0154563341465496e-10
  2.8000000000000003e-01   1.0160497930682869e-10
  2.8999999999999998e-01   1.0166507053940332e-10
  2.9999999999999999e-01   1.0172596945240002e-10
  3.1000000000000000e-01   1.0178768232010328e-10
  3.2000000000000001e-01   1.0185016052753750e-10
  3.3000000000000002e-01   1.0191330657527077e-10
  3.4000000000000002e-01   1.0197698422765224e-10
  3.5000000000000003e-01   1.0204103178486845e-10
  3.5999999999999999e-01   1.0210527722331884e-10
  3.7000000000000000e-01   1.0216955382877939e-10
  3.8000000000000000e-01   1.0223371494917089e-10
  3.9000000000000001e-01   1.0229764661427467e-10
  4.0000000000000002e-01   1.0236127699421575e-10
  4.1000000000000003e-01   1.0242458197425072e-10
  4.1999999999999998e-01   1.0248758648138708e-10
  4.2999999999999999e-01   1.0255036157609440e-10
  4.4000000000000000e-01   1.0261301768667658e-10
  4.5000000000000001e-01   1.0267569468382234e-10
  4.6000000000000002e-01   1.0273854974233506e-10
  4.7000000000000003e-01   1.0280174409687883e-10
  4.7999999999999998e-01   1.0286542985793283e-10
  4.8999999999999999e-01   1.0292973801119934e-10
  5.0000000000000000e-01   1.0299476858551297e-10
  5.1000000000000001e-01   1.0306058375587809e-10
  5.2000000000000002e-01   1.0312720437106503e-10
  5.3000000000000003e-01   1.0319461008502913e-10
  5.4000000000000004e-01   1.0326274295608178e-10
  5.5000000000000004e-01   1.0333151408456787e-10
  5.6000000000000005e-01   1.0340081261331449e-10
  5.7000000000000006e-01   1.0347051623499933e-10
  5.7999999999999996e-01   1.0354050225017061e-10
  5.8999999999999997e-01   1.0361065820494608e-10
  5.9999999999999998e-01   1.0368089120685855e-10
  6.0999999999999999e-01   1.0375113516212857e-10
  6.2000000000000000e-01   1.0382135538285466e-10
  6.3000000000000000e-01   1.0389155025852820e-10
  6.4000000000000001e-01   1.0396174995035666e-10
  6.5000000000000002e-01   1.0403201232574473e-10
  6.6000000000000003e-01   1.0410241658178868e-10
  6.7000000000000004e-01   1.0417305519172484e-10
  6.8000000000000005e-01   1.0424402493250725e-10
  6.9000000000000006e-01   1.0431541780636317e-10
  7.0000000000000007e-01   1.0438731265186417e-10
  7.0999999999999996e-01   1.0445976815461400e-10
  7.1999999999999997e-01   1.0453281782369909e-10
  7.2999999999999998e-01   1.0460646731190884e-10
  7.3999999999999999e-01   1.0468069424308279e-10
  7.5000000000000000e-01   1.0475545048815682e-10
  7.6000000000000001e-01   1.0483066662191609e-10
  7.7000000000000002e-01   1.0490625811278317e-10
  7.8000000000000003e-01   1.0498213266268591e-10
  7.9000000000000004e-01   1.0505819803336674e-10
  8.0000000000000004e-01   1.0513436967457923e-10
  8.1000000000000005e-01   1.0521057750831510e-10
  8.2000000000000006e-01   1.0528677131622897e-10
  8.3000000000000007e-01   1.0536292431498657e-10
  8.3999999999999997e-01   1.0543903467304671e-10
  8.4999999999999998e-01   1.0551512490683905e-10
  8.5999999999999999e-01   1.0559123927801918e-10
  8.7000000000000000e-01   1.0566743948067805e-10
  8.8000000000000000e-01   1.0574379904420192e-10
  8.9000000000000001e-01   1.0582039697314719e-10
  9.0000000000000002e-01   1.0589731119313443e-10
  9.1000000000000003e-01   1.0597461236886779e-10
  9.2000000000000004e-01   1.0605235860887502e-10
  9.3000000000000005e-01   1.0613059147749038e-10
  9.4000000000000006e-01   1.0620933360748546e-10
  9.5000000000000007e-01   1.0628858805864291e-10
  9.5999999999999996e-01   1.0636833941192440e-10
  9.6999999999999997e-01   1.0644855643937486e-10
  9.7999999999999998e-01   1.0652919605921204e-10
  9.8999999999999999e-01   1.0661020818431988e-10
  1.0000000000000000e+00   1.0669154100834645e-10
