# First column is time, second column is the perturbation of detonation velocity.
  0.0000000000000000e+00   1.0000000000000000e-10
  5.0000000000000001e-03   1.0025723715366632e-10
  1.0000000000000000e-02   1.0043072313348169e-10
  1.4999999999999999e-02   1.0064071933389407e-10
  2.0000000000000000e-02   1.0090377747086888e-10
  2.5000000000000001e-02   1.0119340794460970e-10
  2.9999999999999999e-02   1.0147575719598054e-10
  3.5000000000000003e-02   1.0173065158269141e-10
  4.0000000000000001e-02   1.0195914281995984e-10
  4.4999999999999998e-02   1.0217898528710513e-10
  5.0000000000000003e-02   1.0241275742671439e-10
  5.5000000000000000e-02   1.0267549554537206e-10
  5.9999999999999998e-02   1.0296788269734686e-10
  6.5000000000000002e-02   1.0327756605022285e-10
  7.0000000000000007e-02   1.0358689987664523e-10
  7.4999999999999997e-02   1.0388246729368384e-10
  8.0000000000000002e-02   1.0416141236980430e-10
  8.5000000000000006e-02   1.0443178076084851e-10
  8.9999999999999997e-02   1.0470737222301041e-10
  9.5000000000000001e-02   1.0500028688816867e-10
  1.0000000000000001e-01   1.0531514006077585e-10
  1.0500000000000000e-01   1.0564764507421120e-10
  1.1000000000000000e-01   1.0598778647481873e-10
  1.1500000000000000e-01   1.0632549399843007e-10
  1.2000000000000000e-01   1.0665571421869194e-10
  1.2500000000000000e-01   1.0698042158997601e-10
  1.3000000000000000e-01   1.0730690812892352e-10
  1.3500000000000001e-01   1.0764361765114717e-10
  1.4000000000000001e-01   1.0799587234141812e-10
  1.4499999999999999e-01   1.0836363165449230e-10
  1.4999999999999999e-01   1.0874217310302770e-10
  1.5500000000000000e-01   1.0912503020343249e-10
  1.6000000000000000e-01   1.0950747265958725e-10
  1.6500000000000001e-01   1.0988873472677739e-10
  1.7000000000000001e-01   1.1027202095262988e-10
  1.7500000000000002e-01   1.1066253365920736e-10
  1.7999999999999999e-01   1.1106472473947714e-10
  1.8500000000000000e-01   1.1148022692023249e-10
  1.9000000000000000e-01   1.1190741931539866e-10
  1.9500000000000001e-01   1.1234266185408292e-10
  2.0000000000000001e-01   1.1278239810497319e-10
  2.0500000000000002e-01   1.1322498258517465e-10
  2.0999999999999999e-01   1.1367135318339364e-10
  2.1500000000000000e-01   1.1412434241986512e-10
  2.2000000000000000e-01   1.1458712218543897e-10
  2.2500000000000001e-01   1.1506165313704224e-10
  2.3000000000000001e-01   1.1554791063258208e-10
  2.3500000000000001e-01   1.1604418637850552e-10
  2.3999999999999999e-01   1.1654819584555167e-10
  2.4500000000000000e-01   1.1705835018114917e-10
  2.5000000000000000e-01   1.1757454075067886e-10
  2.5500000000000000e-01   1.1809809970642538e-10
  2.6000000000000001e-01   1.1863104781776228e-10
  2.6500000000000001e-01   1.1917508338610786e-10
  2.7000000000000002e-01   1.1973084448783618e-10
  2.7500000000000002e-01   1.2029778137816673e-10
  2.8000000000000003e-01   1.2087463445499376e-10
  2.8500000000000003e-01   1.2146021203812794e-10
  2.8999999999999998e-01   1.2205404687770920e-10
  2.9499999999999998e-01   1.2265661753773230e-10
  2.9999999999999999e-01   1.2326907242579700e-10
  3.0499999999999999e-01   1.2389264885834345e-10
  3.1000000000000000e-01   1.2452811000750702e-10
  3.1500000000000000e-01   1.2517547771092632e-10
  3.2000000000000001e-01   1.2583416079755836e-10
  3.2500000000000001e-01   1.2650337046653625e-10
  3.3000000000000002e-01   1.2718258332662136e-10
  3.3500000000000002e-01   1.2787181558435933e-10
  3.4000000000000002e-01   1.2857159223273436e-10
  3.4500000000000003e-01   1.2928265991251381e-10
  3.5000000000000003e-01   1.3000561435317990e-10
  3.5499999999999998e-01   1.3074063680528327e-10
  3.5999999999999999e-01   1.3148745793128970e-10
  3.6499999999999999e-01   1.3224554112211573e-10
  3.7000000000000000e-01   1.3301436878540076e-10
  3.7500000000000000e-01   1.3379367680002651e-10
  3.8000000000000000e-01   1.3458352535375211e-10
  3.8500000000000001e-01   1.3538418829238794e-10
  3.9000000000000001e-01   1.3619593547068649e-10
  3.9500000000000002e-01   1.3701882757618231e-10
  4.0000000000000002e-01   1.3785262336697340e-10
  4.0500000000000003e-01   1.3869683213103464e-10
  4.1000000000000003e-01   1.3955086817502933e-10
  4.1500000000000004e-01   1.4041421812689018e-10
  4.1999999999999998e-01   1.4128653537762773e-10
  4.2499999999999999e-01   1.4216762181540759e-10
  4.2999999999999999e-01   1.4305731758837550e-10
  4.3500000000000000e-01   1.4395536315579187e-10
  4.4000000000000000e-01   1.4486130457195174e-10
  4.4500000000000001e-01   1.4577448356594127e-10
  4.5000000000000001e-01   1.4669410718248037e-10
  4.5500000000000002e-01   1.4761935278406751e-10
  4.6000000000000002e-01   1.4854945161999544e-10
  4.6500000000000002e-01   1.4948371128323232e-10
  4.7000000000000003e-01   1.5042147237129817e-10
  4.7500000000000003e-01   1.5136202812244604e-10
  4.7999999999999998e-01   1.5230455122192090e-10
  4.8499999999999999e-01   1.5324806368932423e-10
  4.8999999999999999e-01   1.5419146053099764e-10
  4.9500000000000000e-01   1.5513357012066083e-10
  5.0000000000000000e-01   1.5607321814036494e-10
  5.0500000000000000e-01   1.5700926411479778e-10
  5.1000000000000001e-01   1.5794059696576320e-10
  5.1500000000000001e-01   1.5886609824240952e-10
  5.2000000000000002e-01   1.5978459713261073e-10
  5.2500000000000002e-01   1.6069484308638185e-10
  5.3000000000000003e-01   1.6159551054631221e-10
  5.3500000000000003e-01   1.6248523297720715e-10
  5.4000000000000004e-01   1.6336264939411658e-10
  5.4500000000000004e-01   1.6422644250026370e-10
  5.5000000000000004e-01   1.6507535429189131e-10
  5.5500000000000005e-01   1.6590817799457700e-10
  5.6000000000000005e-01   1.6672373728397819e-10
  5.6500000000000006e-01   1.6752086898952845e-10
  5.7000000000000006e-01   1.6829842202673674e-10
  5.7500000000000007e-01   1.6905527583663475e-10
  5.7999999999999996e-01   1.6979037151146480e-10
  5.8499999999999996e-01   1.7050274315273610e-10
  5.8999999999999997e-01   1.7119153814899606e-10
  5.9499999999999997e-01   1.7185602165389531e-10
  5.9999999999999998e-01   1.7249556870086936e-10
  6.0499999999999998e-01   1.7310965287519898e-10
  6.0999999999999999e-01   1.7369784084630901e-10
  6.1499999999999999e-01   1.7425979772479786e-10
  6.2000000000000000e-01   1.7479530184132721e-10
  6.2500000000000000e-01   1.7530426255144003e-10
  6.3000000000000000e-01   1.7578673339227458e-10
  6.3500000000000001e-01   1.7624291558426653e-10
  6.4000000000000001e-01   1.7667315172317701e-10
  6.4500000000000002e-01   1.7707791389268293e-10
  6.5000000000000002e-01   1.7745779222078688e-10
  6.5500000000000003e-01   1.7781348850713037e-10
  6.6000000000000003e-01   1.7814581602019886e-10
  6.6500000000000004e-01   1.7845570290438938e-10
  6.7000000000000004e-01   1.7874419468983875e-10
  6.7500000000000004e-01   1.7901245194715492e-10
  6.8000000000000005e-01   1.7926174162763683e-10
  6.8500000000000005e-01   1.7949342361926702e-10
  6.9000000000000006e-01   1.7970893598844666e-10
  6.9500000000000006e-01   1.7990978241949076e-10
  7.0000000000000007e-01   1.8009752369932413e-10
  7.0499999999999996e-01   1.8027377274258660e-10
  7.0999999999999996e-01   1.8044019085976938e-10
  7.1499999999999997e-01   1.8059848256710690e-10
  7.1999999999999997e-01   1.8075038726619910e-10
  7.2499999999999998e-01   1.8089766790891419e-10
  7.2999999999999998e-01   1.8104209833114828e-10
  7.3499999999999999e-01   1.8118545152747567e-10
  7.3999999999999999e-01   1.8132949055986178e-10
  7.4500000000000000e-01   1.8147596246184005e-10
  7.5000000000000000e-01   1.8162659415813363e-10
  7.5500000000000000e-01   1.8178308873401042e-10
  7.6000000000000001e-01   1.8194712062348715e-10
  7.6500000000000001e-01   1.8212032921785793e-10
  7.7000000000000002e-01   1.8230431148047985e-10
  7.7500000000000002e-01   1.8250061483008711e-10
  7.8000000000000003e-01   1.8271073152877906e-10
  7.8500000000000003e-01   1.8293609517083207e-10
  7.9000000000000004e-01   1.8317807899941355e-10
  7.9500000000000004e-01   1.8343799513648547e-10
  8.0000000000000004e-01   1.8371709368934454e-10
  8.0500000000000005e-01   1.8401656109674169e-10
  8.1000000000000005e-01   1.8433751774020646e-10
  8.1500000000000006e-01   1.8468101541178584e-10
  8.2000000000000006e-01   1.8504803542632285e-10
  8.2500000000000007e-01   1.8543948793711238e-10
  8.3000000000000007e-01   1.8585621251963280e-10
  8.3499999999999996e-01   1.8629897960452683e-10
  8.3999999999999997e-01   1.8676849210776432e-10
  8.4499999999999997e-01   1.8726538671140079e-10
  8.4999999999999998e-01   1.8779023460254855e-10
  8.5499999999999998e-01   1.8834354187730015e-10
  8.5999999999999999e-01   1.8892575005696209e-10
  8.6499999999999999e-01   1.8953723714428871e-10
  8.7000000000000000e-01   1.9017831940666650e-10
  8.7500000000000000e-01   1.9084925375639819e-10
  8.8000000000000000e-01   1.9155024037212548e-10
  8.8500000000000001e-01   1.9228142517305970e-10
  8.9000000000000001e-01   1.9304290191414245e-10
  8.9500000000000002e-01   1.9383471391710183e-10
  9.0000000000000002e-01   1.9465685565712032e-10
  9.0500000000000003e-01   1.9550927449068198e-10
  9.1000000000000003e-01   1.9639187272028393e-10
  9.1500000000000004e-01   1.9730451000865178e-10
  9.2000000000000004e-01   1.9824700598090524e-10
  9.2500000000000004e-01   1.9921914277401259e-10
  9.3000000000000005e-01   2.0022066733809602e-10
  9.3500000000000005e-01   2.0125129342778330e-10
  9.4000000000000006e-01   2.0231070336783201e-10
  9.4500000000000006e-01   2.0339854976196515e-10
  9.5000000000000007e-01   2.0451445730225496e-10
  9.5500000000000007e-01   2.0565802474531805e-10
  9.5999999999999996e-01   2.0682882700559851e-10
  9.6499999999999997e-01   2.0802641723596710e-10
  9.6999999999999997e-01   2.0925032875793868e-10
  9.7499999999999998e-01   2.1050007676420507e-10
  9.7999999999999998e-01   2.1177515980748221e-10
  9.8499999999999999e-01   2.1307506116320487e-10
  9.8999999999999999e-01   2.1439925017495676e-10
  9.9500000000000000e-01   2.1574718365606888e-10
  1.0000000000000000e+00   2.1711830735273461e-10
  1.0050000000000001e+00   2.1851205741098546e-10
  1.0100000000000000e+00   2.1992786176291634e-10
  1.0150000000000001e+00   2.2136514136619098e-10
  1.0200000000000000e+00   2.2282331128084694e-10
  1.0249999999999999e+00   2.2430178162047700e-10
  1.0300000000000000e+00   2.2579995844428297e-10
  1.0349999999999999e+00   2.2731724465033677e-10
  1.0400000000000000e+00   2.2885304089571135e-10
  1.0449999999999999e+00   2.3040674652643173e-10
  1.0500000000000000e+00   2.3197776047165392e-10
  1.0549999999999999e+00   2.3356548205472892e-10
  1.0600000000000001e+00   2.3516931169676778e-10
  1.0649999999999999e+00   2.3678865152177741e-10
  1.0700000000000001e+00   2.3842290589855291e-10
  1.0750000000000000e+00   2.4007148196106279e-10
  1.0800000000000001e+00   2.4173379013495998e-10
  1.0850000000000000e+00   2.4340924467235674e-10
  1.0900000000000001e+00   2.4509726417408842e-10
  1.0950000000000000e+00   2.4679727206941797e-10
  1.1000000000000001e+00   2.4850869703059857e-10
  1.1050000000000000e+00   2.5023097331828652e-10
  1.1100000000000001e+00   2.5196354107297793e-10
  1.1150000000000000e+00   2.5370584657777241e-10
  1.1200000000000001e+00   2.5545734251480283e-10
  1.1250000000000000e+00   2.5721748822450180e-10
  1.1300000000000001e+00   2.5898574996121737e-10
  1.1350000000000000e+00   2.6076160112857000e-10
  1.1400000000000001e+00   2.6254452247780472e-10
  1.1450000000000000e+00   2.6433400226117802e-10
  1.1500000000000001e+00   2.6612953634475392e-10
  1.1550000000000000e+00   2.6793062829432942e-10
  1.1599999999999999e+00   2.6973678945025386e-10
  1.1650000000000000e+00   2.7154753900142571e-10
  1.1699999999999999e+00   2.7336240405933557e-10
  1.1750000000000000e+00   2.7518091972478237e-10
  1.1799999999999999e+00   2.7700262913681475e-10
  1.1850000000000001e+00   2.7882708349648203e-10
  1.1899999999999999e+00   2.8065384206493687e-10
  1.1950000000000001e+00   2.8248247214239984e-10
  1.2000000000000000e+00   2.8431254903799961e-10
  1.2050000000000001e+00   2.8614365603917372e-10
  1.2100000000000000e+00   2.8797538438433039e-10
  1.2150000000000001e+00   2.8980733323672289e-10
  1.2200000000000000e+00   2.9163910965388634e-10
  1.2250000000000001e+00   2.9347032854708139e-10
  1.2300000000000000e+00   2.9530061262849128e-10
  1.2350000000000001e+00   2.9712959234840218e-10
  1.2400000000000000e+00   2.9895690582787398e-10
  1.2450000000000001e+00   3.0078219879295153e-10
  1.2500000000000000e+00   3.0260512451428016e-10
  1.2550000000000001e+00   3.0442534375244170e-10
  1.2600000000000000e+00   3.0624252470630368e-10
  1.2650000000000001e+00   3.0805634296059941e-10
  1.2700000000000000e+00   3.0986648143011961e-10
  1.2750000000000001e+00   3.1167263030044885e-10
  1.2800000000000000e+00   3.1347448696766077e-10
  1.2849999999999999e+00   3.1527175598056611e-10
  1.2900000000000000e+00   3.1706414898850573e-10
  1.2949999999999999e+00   3.1885138469578857e-10
  1.3000000000000000e+00   3.2063318882176906e-10
  1.3049999999999999e+00   3.2240929406428361e-10
  1.3100000000000001e+00   3.2417944006427545e-10
  1.3149999999999999e+00   3.2594337337070395e-10
  1.3200000000000001e+00   3.2770084740649185e-10
  1.3250000000000000e+00   3.2945162243745282e-10
  1.3300000000000001e+00   3.3119546554630483e-10
  1.3350000000000000e+00   3.3293215061305516e-10
  1.3400000000000001e+00   3.3466145830176010e-10
  1.3450000000000000e+00   3.3638317605259215e-10
  1.3500000000000001e+00   3.3809709807782479e-10
  1.3550000000000000e+00   3.3980302536082103e-10
  1.3600000000000001e+00   3.4150076565808619e-10
  1.3650000000000000e+00   3.4319013350534684e-10
  1.3700000000000001e+00   3.4487095022904100e-10
  1.3750000000000000e+00   3.4654304396434112e-10
  1.3800000000000001e+00   3.4820624968012809e-10
  1.3850000000000000e+00   3.4986040921055049e-10
  1.3900000000000001e+00   3.5150537129234182e-10
  1.3950000000000000e+00   3.5314099160711370e-10
  1.4000000000000001e+00   3.5476713282829025e-10
  1.4050000000000000e+00   3.5638366467292840e-10
  1.4099999999999999e+00   3.5799046395904890e-10
  1.4150000000000000e+00   3.5958741466910341e-10
  1.4199999999999999e+00   3.6117440801983881e-10
  1.4250000000000000e+00   3.6275134253829913e-10
  1.4299999999999999e+00   3.6431812414327282e-10
  1.4350000000000001e+00   3.6587466623133584e-10
  1.4399999999999999e+00   3.6742088976678159e-10
  1.4450000000000001e+00   3.6895672337503975e-10
  1.4500000000000000e+00   3.7048210343946268e-10
  1.4550000000000001e+00   3.7199697420146245e-10
  1.4600000000000000e+00   3.7350128786382324e-10
  1.4650000000000001e+00   3.7499500469672165e-10
  1.4700000000000000e+00   3.7647809314565982e-10
  1.4750000000000001e+00   3.7795052994033361e-10
  1.4800000000000000e+00   3.7941230020345075e-10
  1.4850000000000001e+00   3.8086339755867487e-10
  1.4900000000000000e+00   3.8230382423705988e-10
  1.4950000000000001e+00   3.8373359118147204e-10
  1.5000000000000000e+00   3.8515271814848010e-10
  1.5050000000000001e+00   3.8656123380706310e-10
  1.5100000000000000e+00   3.8795917583328755e-10
  1.5150000000000001e+00   3.8934659099997566e-10
  1.5200000000000000e+00   3.9072353526033075e-10
  1.5250000000000001e+00   3.9209007382457517e-10
  1.5300000000000000e+00   3.9344628122877529e-10
  1.5350000000000001e+00   3.9479224139516887e-10
  1.5400000000000000e+00   3.9612804768335445e-10
  1.5449999999999999e+00   3.9745380293167572e-10
  1.5500000000000000e+00   3.9876961948805231e-10
  1.5549999999999999e+00   4.0007561922942259e-10
  1.5600000000000001e+00   4.0137193356893000e-10
  1.5649999999999999e+00   4.0265870345002235e-10
  1.5700000000000001e+00   4.0393607932673099e-10
  1.5750000000000000e+00   4.0520422112950317e-10
  1.5800000000000001e+00   4.0646329821604462e-10
  1.5850000000000000e+00   4.0771348930666829e-10
  1.5900000000000001e+00   4.0895498240363122e-10
  1.5950000000000000e+00   4.1018797469391839e-10
  1.6000000000000001e+00   4.1141267243493304e-10
  1.6050000000000000e+00   4.1262929082257983e-10
  1.6100000000000001e+00   4.1383805384132144e-10
  1.6150000000000000e+00   4.1503919409588123e-10
  1.6200000000000001e+00   4.1623295262437306e-10
  1.6250000000000000e+00   4.1741957869271604e-10
  1.6300000000000001e+00   4.1859932957024157e-10
  1.6350000000000000e+00   4.1977247028643246e-10
  1.6400000000000001e+00   4.2093927336876946e-10
  1.6450000000000000e+00   4.2210001856171609e-10
  1.6500000000000001e+00   4.2325499252696203e-10
  1.6550000000000000e+00   4.2440448852514275e-10
  1.6600000000000001e+00   4.2554880607937366e-10
  1.6650000000000000e+00   4.2668825062103300e-10
  1.6699999999999999e+00   4.2782313311830838e-10
  1.6750000000000000e+00   4.2895376968809376e-10
  1.6799999999999999e+00   4.3008048119187761e-10
  1.6850000000000001e+00   4.3120359281632948e-10
  1.6899999999999999e+00   4.3232343363936736e-10
  1.6950000000000001e+00   4.3344033618258326e-10
  1.7000000000000000e+00   4.3455463595098591e-10
  1.7050000000000001e+00   4.3566667096111895e-10
  1.7100000000000000e+00   4.3677678125867399e-10
  1.7150000000000001e+00   4.3788530842678418e-10
  1.7200000000000000e+00   4.3899259508621562e-10
  1.7250000000000001e+00   4.4009898438872432e-10
  1.7300000000000000e+00   4.4120481950487259e-10
  1.7350000000000001e+00   4.4231044310765329e-10
  1.7400000000000000e+00   4.4341619685330407e-10
  1.7450000000000001e+00   4.4452242086073045e-10
  1.7500000000000000e+00   4.4562945319098924e-10
  1.7550000000000001e+00   4.4673762932828751e-10
  1.7600000000000000e+00   4.4784728166395362e-10
  1.7650000000000001e+00   4.4895873898482800e-10
  1.7700000000000000e+00   4.5007232596750575e-10
  1.7750000000000001e+00   4.5118836267984506e-10
  1.7800000000000000e+00   4.5230716409114921e-10
  1.7850000000000001e+00   4.5342903959239835e-10
  1.7900000000000000e+00   4.5455429252788999e-10
  1.7949999999999999e+00   4.5568321973961253e-10
  1.8000000000000000e+00   4.5681611112562730e-10
  1.8049999999999999e+00   4.5795324921369334e-10
  1.8100000000000001e+00   4.5909490875130921e-10
  1.8149999999999999e+00   4.6024135631329661e-10
  1.8200000000000001e+00   4.6139284992799742e-10
  1.8250000000000000e+00   4.6254963872310064e-10
  1.8300000000000001e+00   4.6371196259207078e-10
  1.8350000000000000e+00   4.6488005188207626e-10
  1.8400000000000001e+00   4.6605412710427348e-10
  1.8450000000000000e+00   4.6723439866722385e-10
  1.8500000000000001e+00   4.6842106663416769e-10
  1.8550000000000000e+00   4.6961432050480321e-10
  1.8600000000000001e+00   4.7081433902216720e-10
  1.8650000000000000e+00   4.7202129000514883e-10
  1.8700000000000001e+00   4.7323533020710772e-10
  1.8750000000000000e+00   4.7445660520101358e-10
  1.8800000000000001e+00   4.7568524929145898e-10
  1.8850000000000000e+00   4.7692138545384248e-10
  1.8900000000000001e+00   4.7816512530095355e-10
  1.8950000000000000e+00   4.7941656907713269e-10
  1.9000000000000001e+00   4.8067580568012213e-10
  1.9050000000000000e+00   4.8194291271066790e-10
  1.9100000000000001e+00   4.8321795654987436e-10
  1.9150000000000000e+00   4.8450099246426586e-10
  1.9199999999999999e+00   4.8579206473844935e-10
  1.9250000000000000e+00   4.8709120683522469e-10
  1.9299999999999999e+00   4.8839844158292567e-10
  1.9350000000000001e+00   4.8971378138973430e-10
  1.9399999999999999e+00   4.9103722848464302e-10
  1.9450000000000001e+00   4.9236877518470069e-10
  1.9500000000000000e+00   4.9370840418811827e-10
  1.9550000000000001e+00   4.9505608889276777e-10
  1.9600000000000000e+00   4.9641179373955085e-10
  1.9650000000000001e+00   4.9777547458007371e-10
  1.9700000000000000e+00   4.9914707906800423e-10
  1.9750000000000001e+00   5.0052654707344788e-10
  1.9800000000000000e+00   5.0191381111962317e-10
  1.9850000000000001e+00   5.0330879684107181e-10
