# First column is time, second column is the perturbation of detonation velocity.
  0.0000000000000000e+00   1.0000000000000000e-10
  5.0000000000000001e-03   1.0026013364166559e-10
  1.0000000000000000e-02   1.0043735024699109e-10
  1.4999999999999999e-02   1.0061577355407648e-10
  2.0000000000000000e-02   1.0082864610259983e-10
  2.5000000000000001e-02   1.0107847378157752e-10
  2.9999999999999999e-02   1.0135143775546513e-10
  3.5000000000000003e-02   1.0162860497246517e-10
  4.0000000000000001e-02   1.0189421290813215e-10
  4.4999999999999998e-02   1.0214055732016569e-10
  5.0000000000000003e-02   1.0236923155637309e-10
  5.5000000000000000e-02   1.0258915561193024e-10
  5.9999999999999998e-02   1.0281254589467537e-10
  6.5000000000000002e-02   1.0305038121908948e-10
  7.0000000000000007e-02   1.0330885996621375e-10
  7.4999999999999997e-02   1.0358784977642139e-10
  8.0000000000000002e-02   1.0388158681117876e-10
  8.5000000000000006e-02   1.0418113956874348e-10
  8.9999999999999997e-02   1.0447764439373034e-10
  9.5000000000000001e-02   1.0476518237686336e-10
  1.0000000000000001e-01   1.0504240531192439e-10
  1.0500000000000000e-01   1.0531251651127905e-10
  1.1000000000000000e-01   1.0558178394508356e-10
  1.1500000000000000e-01   1.0585721743284565e-10
  1.2000000000000000e-01   1.0614424498225870e-10
  1.2500000000000000e-01   1.0644513674651135e-10
  1.3000000000000000e-01   1.0675860658811854e-10
  1.3500000000000001e-01   1.0708059750465393e-10
  1.4000000000000001e-01   1.0740587547418291e-10
  1.4499999999999999e-01   1.0772983506362043e-10
  1.4999999999999999e-01   1.0804991391655476e-10
  1.5500000000000000e-01   1.0836620166577090e-10
  1.6000000000000000e-01   1.0868113104448512e-10
  1.6500000000000001e-01   1.0899844592398573e-10
  1.7000000000000001e-01   1.0932185341846407e-10
  1.7500000000000002e-01   1.0965382653827369e-10
  1.7999999999999999e-01   1.0999492694645844e-10
  1.8500000000000000e-01   1.1034381160359315e-10
  1.9000000000000000e-01   1.1069784999521467e-10
  1.9500000000000001e-01   1.1105408977248567e-10
  2.0000000000000001e-01   1.1141022376500751e-10
  2.0500000000000002e-01   1.1176524695188623e-10
  2.0999999999999999e-01   1.1211962411882944e-10
  2.1500000000000000e-01   1.1247496503409692e-10
  2.2000000000000000e-01   1.1283336280550662e-10
  2.2500000000000001e-01   1.1319664331688444e-10
  2.3000000000000001e-01   1.1356577652128311e-10
  2.3500000000000001e-01   1.1394062224631786e-10
  2.3999999999999999e-01   1.1432005759861653e-10
  2.4500000000000000e-01   1.1470240537666553e-10
  2.5000000000000000e-01   1.1508599442008034e-10
  2.5500000000000000e-01   1.1546965793970388e-10
  2.6000000000000001e-01   1.1585301598731317e-10
  2.6500000000000001e-01   1.1623647367459791e-10
  2.7000000000000002e-01   1.1662096533032875e-10
  2.7500000000000002e-01   1.1700755340559278e-10
  2.8000000000000003e-01   1.1739702637304760e-10
  2.8500000000000003e-01   1.1778962520079732e-10
  2.8999999999999998e-01   1.1818497313949989e-10
  2.9499999999999998e-01   1.1858221036528644e-10
  2.9999999999999999e-01   1.1898026893279052e-10
  3.0499999999999999e-01   1.1937818504127133e-10
  3.1000000000000000e-01   1.1977534430522660e-10
  3.1500000000000000e-01   1.2017158811286075e-10
  3.2000000000000001e-01   1.2056716132621740e-10
  3.2500000000000001e-01   1.2096253468251628e-10
  3.3000000000000002e-01   1.2135817211069704e-10
  3.3500000000000002e-01   1.2175432360898891e-10
  3.4000000000000002e-01   1.2215090772665240e-10
  3.4500000000000003e-01   1.2254751220731570e-10
  3.5000000000000003e-01   1.2294350036369037e-10
  3.5499999999999998e-01   1.2333817802534159e-10
  3.5999999999999999e-01   1.2373096110639750e-10
  3.6499999999999999e-01   1.2412148987636661e-10
  3.7000000000000000e-01   1.2450965877779153e-10
  3.7500000000000000e-01   1.2489556105724156e-10
  3.8000000000000000e-01   1.2527937497480701e-10
  3.8500000000000001e-01   1.2566123438627997e-10
  3.9000000000000001e-01   1.2604112708481566e-10
  3.9500000000000002e-01   1.2641885085786225e-10
  4.0000000000000002e-01   1.2679403553938322e-10
  4.0500000000000003e-01   1.2716621724852943e-10
  4.1000000000000003e-01   1.2753493565491969e-10
  4.1500000000000004e-01   1.2789982073734864e-10
  4.1999999999999998e-01   1.2826064237376203e-10
  4.2499999999999999e-01   1.2861731083627306e-10
  4.2999999999999999e-01   1.2896983330656089e-10
  4.3500000000000000e-01   1.2931824515054629e-10
  4.4000000000000000e-01   1.2966254086771294e-10
  4.4500000000000001e-01   1.3000262714586111e-10
  4.5000000000000001e-01   1.3033831100577556e-10
  4.5500000000000002e-01   1.3066932337534714e-10
  4.6000000000000002e-01   1.3099536699062242e-10
  4.6500000000000002e-01   1.3131617083921321e-10
  4.7000000000000003e-01   1.3163153309533162e-10
  4.7500000000000003e-01   1.3194134006461093e-10
  4.7999999999999998e-01   1.3224555766265777e-10
  4.8499999999999999e-01   1.3254420113894047e-10
  4.8999999999999999e-01   1.3283729515180543e-10
  4.9500000000000000e-01   1.3312483813383755e-10
  5.0000000000000000e-01   1.3340678204344148e-10
  5.0500000000000000e-01   1.3368303247945442e-10
  5.1000000000000001e-01   1.3395346705044026e-10
  5.1500000000000001e-01   1.3421796421961378e-10
  5.2000000000000002e-01   1.3447643226817931e-10
  5.2500000000000002e-01   1.3472882904276622e-10
  5.3000000000000003e-01   1.3497516707348080e-10
  5.3500000000000003e-01   1.3521550390520248e-10
  5.4000000000000004e-01   1.3544992224611909e-10
  5.4500000000000004e-01   1.3567850732341592e-10
  5.5000000000000004e-01   1.3590132895531932e-10
  5.5500000000000005e-01   1.3611843354008161e-10
  5.6000000000000005e-01   1.3632984742119456e-10
  5.6500000000000006e-01   1.3653558926697431e-10
  5.7000000000000006e-01   1.3673568643964129e-10
  5.7500000000000007e-01   1.3693018956077359e-10
  5.7999999999999996e-01   1.3711918065690097e-10
  5.8499999999999996e-01   1.3730277281019128e-10
  5.8999999999999997e-01   1.3748110218512111e-10
  5.9499999999999997e-01   1.3765431566260181e-10
  5.9999999999999998e-01   1.3782255838935817e-10
  6.0499999999999998e-01   1.3798596512941013e-10
  6.0999999999999999e-01   1.3814465767722424e-10
  6.1499999999999999e-01   1.3829874840737953e-10
  6.2000000000000000e-01   1.3844834805430645e-10
  6.2500000000000000e-01   1.3859357465416218e-10
  6.3000000000000000e-01   1.3873456052771310e-10
  6.3500000000000001e-01   1.3887145514009715e-10
  6.4000000000000001e-01   1.3900442322753731e-10
  6.4500000000000002e-01   1.3913363917020994e-10
  6.5000000000000002e-01   1.3925927969945997e-10
  6.5500000000000003e-01   1.3938151734934570e-10
  6.6000000000000003e-01   1.3950051657527333e-10
  6.6500000000000004e-01   1.3961643340704354e-10
  6.7000000000000004e-01   1.3972941827862786e-10
  6.7500000000000004e-01   1.3983962069422450e-10
  6.8000000000000005e-01   1.3994719394069548e-10
  6.8500000000000005e-01   1.4005229822958299e-10
  6.9000000000000006e-01   1.4015510132717461e-10
  6.9500000000000006e-01   1.4025577663906915e-10
  7.0000000000000007e-01   1.4035449954004927e-10
  7.0499999999999996e-01   1.4045144322422354e-10
  7.0999999999999996e-01   1.4054677537393824e-10
  7.1499999999999997e-01   1.4064065654918709e-10
  7.1999999999999997e-01   1.4073324055355268e-10
  7.2499999999999998e-01   1.4082467637177961e-10
  7.2999999999999998e-01   1.4091511081221301e-10
  7.3499999999999999e-01   1.4100469085252109e-10
  7.3999999999999999e-01   1.4109356488879175e-10
  7.4500000000000000e-01   1.4118188252642199e-10
  7.5000000000000000e-01   1.4126979306058537e-10
  7.5500000000000000e-01   1.4135744320318807e-10
  7.6000000000000001e-01   1.4144497480087619e-10
  7.6500000000000001e-01   1.4153252321746221e-10
  7.7000000000000002e-01   1.4162021677389942e-10
  7.7500000000000002e-01   1.4170817726153962e-10
  7.8000000000000003e-01   1.4179652120138699e-10
  7.8500000000000003e-01   1.4188536132020784e-10
  7.9000000000000004e-01   1.4197480770393196e-10
  7.9500000000000004e-01   1.4206496825322834e-10
  8.0000000000000004e-01   1.4215594833433412e-10
  8.0500000000000005e-01   1.4224784979303601e-10
  8.1000000000000005e-01   1.4234076969198972e-10
  8.1500000000000006e-01   1.4243479918796142e-10
  8.2000000000000006e-01   1.4253002288202147e-10
  8.2500000000000007e-01   1.4262651879359537e-10
  8.3000000000000007e-01   1.4272435889738795e-10
  8.3499999999999996e-01   1.4282360999179021e-10
  8.3999999999999997e-01   1.4292433458893715e-10
  8.4499999999999997e-01   1.4302659154577183e-10
  8.4999999999999998e-01   1.4313043627167847e-10
  8.5499999999999998e-01   1.4323592050501714e-10
  8.5999999999999999e-01   1.4334309179354171e-10
  8.6499999999999999e-01   1.4345199289775739e-10
  8.7000000000000000e-01   1.4356266134079797e-10
  8.7500000000000000e-01   1.4367512926017890e-10
  8.8000000000000000e-01   1.4378942360532360e-10
  8.8500000000000001e-01   1.4390556661043635e-10
  8.9000000000000001e-01   1.4402357639219963e-10
  8.9500000000000002e-01   1.4414346749814411e-10
  9.0000000000000002e-01   1.4426525126613385e-10
  9.0500000000000003e-01   1.4438893593106508e-10
  9.1000000000000003e-01   1.4451452650301294e-10
  9.1500000000000004e-01   1.4464202451204130e-10
  9.2000000000000004e-01   1.4477142774769040e-10
  9.2500000000000004e-01   1.4490273010921392e-10
  9.3000000000000005e-01   1.4503592163447727e-10
  9.3500000000000005e-01   1.4517098871034073e-10
  9.4000000000000006e-01   1.4530791440806904e-10
  9.4500000000000006e-01   1.4544667885233547e-10
  9.5000000000000007e-01   1.4558725953047761e-10
  9.5500000000000007e-01   1.4572963147701634e-10
  9.5999999999999996e-01   1.4587376731482230e-10
  9.6499999999999997e-01   1.4601963718192749e-10
  9.6999999999999997e-01   1.4616720860639449e-10
  9.7499999999999998e-01   1.4631644640160704e-10
  9.7999999999999998e-01   1.4646731264007408e-10
  9.8499999999999999e-01   1.4661976673245632e-10
  9.8999999999999999e-01   1.4677376560190950e-10
  9.9500000000000000e-01   1.4692926391431036e-10
  1.0000000000000000e+00   1.4708621431125243e-10
  1.0050000000000001e+00   1.4724456759761331e-10
  1.0100000000000000e+00   1.4740427285547873e-10
  1.0150000000000001e+00   1.4756527748325258e-10
  1.0200000000000000e+00   1.4772752718343063e-10
  1.0249999999999999e+00   1.4789096593707531e-10
  1.0300000000000000e+00   1.4805553600383885e-10
  1.0349999999999999e+00   1.4822117797460054e-10
  1.0400000000000000e+00   1.4838783088448261e-10
  1.0449999999999999e+00   1.4855543237417681e-10
  1.0500000000000000e+00   1.4872391887356112e-10
  1.0549999999999999e+00   1.4889322577738347e-10
  1.0600000000000001e+00   1.4906328758866455e-10
  1.0649999999999999e+00   1.4923403801847162e-10
  1.0700000000000001e+00   1.4940541004591473e-10
  1.0750000000000000e+00   1.4957733595448232e-10
  1.0800000000000001e+00   1.4974974736652465e-10
  1.0850000000000000e+00   1.4992257529565816e-10
  1.0900000000000001e+00   1.5009575022856028e-10
  1.0950000000000000e+00   1.5026920223637987e-10
  1.1000000000000001e+00   1.5044286110573130e-10
  1.1050000000000000e+00   1.5061665647317730e-10
  1.1100000000000001e+00   1.5079051794676075e-10
  1.1150000000000000e+00   1.5096437520304488e-10
  1.1200000000000001e+00   1.5113815805615881e-10
  1.1250000000000000e+00   1.5131179650361493e-10
  1.1300000000000001e+00   1.5148522075950591e-10
  1.1350000000000000e+00   1.5165836128747233e-10
  1.1400000000000001e+00   1.5183114884343592e-10
  1.1450000000000000e+00   1.5200351453272488e-10
  1.1500000000000001e+00   1.5217538987993075e-10
  1.1550000000000000e+00   1.5234670690476436e-10
  1.1599999999999999e+00   1.5251739819483339e-10
  1.1650000000000000e+00   1.5268739696713162e-10
  1.1699999999999999e+00   1.5285663711350644e-10
  1.1750000000000000e+00   1.5302505323006950e-10
  1.1799999999999999e+00   1.5319258063480746e-10
  1.1850000000000001e+00   1.5335915538019936e-10
  1.1899999999999999e+00   1.5352471426781316e-10
  1.1950000000000001e+00   1.5368919486983876e-10
  1.2000000000000000e+00   1.5385253555918468e-10
  1.2050000000000001e+00   1.5401467554633192e-10
  1.2100000000000000e+00   1.5417555491871061e-10
  1.2150000000000001e+00   1.5433511467761448e-10
  1.2200000000000000e+00   1.5449329676865708e-10
  1.2250000000000001e+00   1.5465004410399540e-10
  1.2300000000000000e+00   1.5480530057714907e-10
  1.2350000000000001e+00   1.5495901107334378e-10
  1.2400000000000000e+00   1.5511112147926934e-10
  1.2450000000000001e+00   1.5526157869577269e-10
  1.2500000000000000e+00   1.5541033065554374e-10
  1.2550000000000001e+00   1.5555732634588244e-10
  1.2600000000000000e+00   1.5570251583483074e-10
  1.2650000000000001e+00   1.5584585029787351e-10
  1.2700000000000000e+00   1.5598728204232194e-10
  1.2750000000000001e+00   1.5612676452731273e-10
  1.2800000000000000e+00   1.5626425237872631e-10
  1.2849999999999999e+00   1.5639970139974038e-10
  1.2900000000000000e+00   1.5653306857873672e-10
  1.2949999999999999e+00   1.5666431209658537e-10
  1.3000000000000000e+00   1.5679339133491300e-10
  1.3049999999999999e+00   1.5692026688603712e-10
  1.3100000000000001e+00   1.5704490056416442e-10
  1.3149999999999999e+00   1.5716725541657662e-10
  1.3200000000000001e+00   1.5728729573313101e-10
  1.3250000000000000e+00   1.5740498705255909e-10
  1.3300000000000001e+00   1.5752029616466212e-10
  1.3350000000000000e+00   1.5763319110832886e-10
  1.3400000000000001e+00   1.5774364116606568e-10
  1.3450000000000000e+00   1.5785161685618643e-10
  1.3500000000000001e+00   1.5795708992386666e-10
  1.3550000000000000e+00   1.5806003333193722e-10
  1.3600000000000001e+00   1.5816042125173792e-10
  1.3650000000000000e+00   1.5825822905377965e-10
  1.3700000000000001e+00   1.5835343329755707e-10
  1.3750000000000000e+00   1.5844601171974250e-10
  1.3800000000000001e+00   1.5853594322017329e-10
  1.3850000000000000e+00   1.5862320784544157e-10
  1.3900000000000001e+00   1.5870778677035645e-10
  1.3950000000000000e+00   1.5878966227791855e-10
  1.4000000000000001e+00   1.5886881773862188e-10
  1.4050000000000000e+00   1.5894523758983645e-10
  1.4099999999999999e+00   1.5901890731577321e-10
  1.4150000000000000e+00   1.5908981342819113e-10
  1.4199999999999999e+00   1.5915794344768799e-10
  1.4250000000000000e+00   1.5922328588522075e-10
  1.4299999999999999e+00   1.5928583022347748e-10
  1.4350000000000001e+00   1.5934556689785044e-10
  1.4399999999999999e+00   1.5940248727698505e-10
  1.4450000000000001e+00   1.5945658364310983e-10
  1.4500000000000000e+00   1.5950784917251161e-10
  1.4550000000000001e+00   1.5955627791655834e-10
  1.4600000000000000e+00   1.5960186478358648e-10
  1.4650000000000001e+00   1.5964460552179405e-10
  1.4700000000000000e+00   1.5968449670307899e-10
  1.4750000000000001e+00   1.5972153570759744e-10
  1.4800000000000000e+00   1.5975572070873358e-10
  1.4850000000000001e+00   1.5978705065818879e-10
  1.4900000000000000e+00   1.5981552527099276e-10
  1.4950000000000001e+00   1.5984114501037359e-10
  1.5000000000000000e+00   1.5986391107254986e-10
  1.5050000000000001e+00   1.5988382537158171e-10
  1.5100000000000000e+00   1.5990089052442410e-10
  1.5150000000000001e+00   1.5991510983626977e-10
  1.5200000000000000e+00   1.5992648728617087e-10
  1.5250000000000001e+00   1.5993502751283355e-10
  1.5300000000000000e+00   1.5994073580041210e-10
  1.5350000000000001e+00   1.5994361806411319e-10
  1.5400000000000000e+00   1.5994368083546020e-10
  1.5449999999999999e+00   1.5994093124714150e-10
  1.5500000000000000e+00   1.5993537701745414e-10
  1.5549999999999999e+00   1.5992702643442708e-10
  1.5600000000000001e+00   1.5991588833974873e-10
  1.5649999999999999e+00   1.5990197211261877e-10
  1.5700000000000001e+00   1.5988528765361426e-10
  1.5750000000000000e+00   1.5986584536860415e-10
  1.5800000000000001e+00   1.5984365615270406e-10
  1.5850000000000000e+00   1.5981873137423354e-10
  1.5900000000000001e+00   1.5979108285864071e-10
  1.5950000000000000e+00   1.5976072287238768e-10
  1.6000000000000001e+00   1.5972766410683198e-10
  1.6050000000000000e+00   1.5969191966218297e-10
  1.6100000000000001e+00   1.5965350303164297e-10
  1.6150000000000000e+00   1.5961242808584776e-10
  1.6200000000000001e+00   1.5956870905770960e-10
  1.6250000000000000e+00   1.5952236052773105e-10
  1.6300000000000001e+00   1.5947339740982248e-10
  1.6350000000000000e+00   1.5942183493762353e-10
  1.6400000000000001e+00   1.5936768865130917e-10
  1.6450000000000000e+00   1.5931097438485914e-10
  1.6500000000000001e+00   1.5925170825378071e-10
  1.6550000000000000e+00   1.5918990664328932e-10
  1.6600000000000001e+00   1.5912558619696964e-10
  1.6650000000000000e+00   1.5905876380594304e-10
  1.6699999999999999e+00   1.5898945659856369e-10
  1.6750000000000000e+00   1.5891768193064755e-10
  1.6799999999999999e+00   1.5884345737621629e-10
  1.6850000000000001e+00   1.5876680071871503e-10
  1.6899999999999999e+00   1.5868772994264551e-10
  1.6950000000000001e+00   1.5860626322554887e-10
  1.7000000000000000e+00   1.5852241893027428e-10
  1.7050000000000001e+00   1.5843621559747976e-10
  1.7100000000000000e+00   1.5834767193832309e-10
  1.7150000000000001e+00   1.5825680682731240e-10
  1.7200000000000000e+00   1.5816363929529214e-10
  1.7250000000000001e+00   1.5806818852253882e-10
  1.7300000000000000e+00   1.5797047383193730e-10
  1.7350000000000001e+00   1.5787051468220063e-10
  1.7400000000000000e+00   1.5776833066109047e-10
  1.7450000000000001e+00   1.5766394147859390e-10
  1.7500000000000000e+00   1.5755736696001730e-10
  1.7550000000000001e+00   1.5744862703896432e-10
  1.7600000000000000e+00   1.5733774175018026e-10
  1.7650000000000001e+00   1.5722473122225498e-10
  1.7700000000000000e+00   1.5710961567018732e-10
  1.7750000000000001e+00   1.5699241538782122e-10
  1.7800000000000000e+00   1.5687315074016407e-10
  1.7850000000000001e+00   1.5675184215559990e-10
  1.7900000000000000e+00   1.5662851011800534e-10
  1.7949999999999999e+00   1.5650317515877714e-10
  1.8000000000000000e+00   1.5637585784877916e-10
  1.8049999999999999e+00   1.5624657879022009e-10
  1.8100000000000001e+00   1.5611535860847822e-10
  1.8149999999999999e+00   1.5598221794389409e-10
  1.8200000000000001e+00   1.5584717744355573e-10
  1.8250000000000000e+00   1.5571025775310559e-10
  1.8300000000000001e+00   1.5557147950859471e-10
  1.8350000000000000e+00   1.5543086332840866e-10
  1.8400000000000001e+00   1.5528842980528561e-10
  1.8450000000000000e+00   1.5514419949843967e-10
  1.8500000000000001e+00   1.5499819292580083e-10
  1.8550000000000000e+00   1.5485043055637762e-10
  1.8600000000000001e+00   1.5470093280274716e-10
  1.8650000000000000e+00   1.5454972001367704e-10
  1.8700000000000001e+00   1.5439681246688292e-10
  1.8750000000000000e+00   1.5424223036192314e-10
  1.8800000000000001e+00   1.5408599381323286e-10
  1.8850000000000000e+00   1.5392812284329416e-10
  1.8900000000000001e+00   1.5376863737593765e-10
  1.8950000000000000e+00   1.5360755722976578e-10
  1.9000000000000001e+00   1.5344490211168517e-10
  1.9050000000000000e+00   1.5328069161053312e-10
  1.9100000000000001e+00   1.5311494519078244e-10
  1.9150000000000000e+00   1.5294768218630885e-10
  1.9199999999999999e+00   1.5277892179420561e-10
  1.9250000000000000e+00   1.5260868306863280e-10
  1.9299999999999999e+00   1.5243698491468922e-10
  1.9350000000000001e+00   1.5226384608229611e-10
  1.9399999999999999e+00   1.5208928516008324e-10
  1.9450000000000001e+00   1.5191332056926919e-10
  1.9500000000000000e+00   1.5173597055752606e-10
  1.9550000000000001e+00   1.5155725319282436e-10
  1.9600000000000000e+00   1.5137718635725046e-10
  1.9650000000000001e+00   1.5119578774079575e-10
  1.9700000000000000e+00   1.5101307483511721e-10
  1.9750000000000001e+00   1.5082906492727271e-10
  1.9800000000000000e+00   1.5064377509343703e-10
  1.9850000000000001e+00   1.5045722219260813e-10
