# First column is time, second column is the perturbation of detonation velocity.
  0.0000000000000000e+00   1.0000000000000000e-10
  5.0000000000000001e-03   1.0022382200581031e-10
  1.0000000000000000e-02   1.0044893246707343e-10
  1.4999999999999999e-02   1.0067883523422537e-10
  2.0000000000000000e-02   1.0091243026693612e-10
  2.5000000000000001e-02   1.0114974230031939e-10
  2.9999999999999999e-02   1.0139089234786479e-10
  3.5000000000000003e-02   1.0163596302053599e-10
  4.0000000000000001e-02   1.0188503607466221e-10
  4.4999999999999998e-02   1.0213819693002760e-10
  5.0000000000000003e-02   1.0239553338593804e-10
  5.5000000000000000e-02   1.0265713553671348e-10
  5.9999999999999998e-02   1.0292309588394326e-10
  6.5000000000000002e-02   1.0319350941276714e-10
  7.0000000000000007e-02   1.0346847366761411e-10
  7.4999999999999997e-02   1.0374808883282483e-10
  8.0000000000000002e-02   1.0403245781572343e-10
  8.5000000000000006e-02   1.0432168633186281e-10
  8.9999999999999997e-02   1.0461588299280137e-10
  9.5000000000000001e-02   1.0491515939667249e-10
  1.0000000000000001e-01   1.0521963022167817e-10
  1.0500000000000000e-01   1.0552941332257162e-10
  1.1000000000000000e-01   1.0584462983016826e-10
  1.1500000000000000e-01   1.0616540425394028e-10
  1.2000000000000000e-01   1.0649186458773786e-10
  1.2500000000000000e-01   1.0682414241869405e-10
  1.3000000000000000e-01   1.0716237303935687e-10
  1.3500000000000001e-01   1.0750669556308460e-10
  1.4000000000000001e-01   1.0785725304273392e-10
  1.4499999999999999e-01   1.0821419259265618e-10
  1.4999999999999999e-01   1.0857766551400794e-10
  1.5500000000000000e-01   1.0894782742336617e-10
  1.6000000000000000e-01   1.0932483838461892e-10
  1.6500000000000001e-01   1.0970886304409015e-10
  1.7000000000000001e-01   1.1010007076883206e-10
  1.7500000000000002e-01   1.1049863578798836e-10
  1.7999999999999999e-01   1.1090473733711327e-10
  1.8500000000000000e-01   1.1131855980528688e-10
  1.9000000000000000e-01   1.1174029288484368e-10
  1.9500000000000001e-01   1.1217013172347325e-10
  2.0000000000000001e-01   1.1260827707841776e-10
  2.0500000000000002e-01   1.1305493547242725e-10
  2.0999999999999999e-01   1.1351031935107814e-10
  2.1500000000000000e-01   1.1397464724098645e-10
  2.2000000000000000e-01   1.1444814390837177e-10
  2.2500000000000001e-01   1.1493104051734023e-10
  2.3000000000000001e-01   1.1542357478714915e-10
  2.3500000000000001e-01   1.1592599114761651e-10
  2.3999999999999999e-01   1.1643854089169664e-10
  2.4500000000000000e-01   1.1696148232412239e-10
  2.5000000000000000e-01   1.1749508090483505e-10
  2.5500000000000000e-01   1.1803960938576650e-10
  2.6000000000000001e-01   1.1859534793932652e-10
  2.6500000000000001e-01   1.1916258427674025e-10
  2.7000000000000002e-01   1.1974161375411816e-10
  2.7500000000000002e-01   1.2033273946388945e-10
  2.8000000000000003e-01   1.2093627230890434e-10
  2.8500000000000003e-01   1.2155253105618511e-10
  2.8999999999999998e-01   1.2218184236692455e-10
  2.9499999999999998e-01   1.2282454079891552e-10
  2.9999999999999999e-01   1.2348096877713041e-10
  3.0499999999999999e-01   1.2415147652766831e-10
  3.1000000000000000e-01   1.2483642196971557e-10
  3.1500000000000000e-01   1.2553617055955140e-10
  3.2000000000000001e-01   1.2625109507996148e-10
  3.2500000000000001e-01   1.2698157536764991e-10
  3.3000000000000002e-01   1.2772799797046893e-10
  3.3500000000000002e-01   1.2849075572536584e-10
  3.4000000000000002e-01   1.2927024724700035e-10
  3.4500000000000003e-01   1.3006687631595720e-10
  3.5000000000000003e-01   1.3088105115434899e-10
  3.5499999999999998e-01   1.3171318357541435e-10
  3.5999999999999999e-01   1.3256368799245845e-10
  3.6499999999999999e-01   1.3343298027111844e-10
  3.7000000000000000e-01   1.3432147640756006e-10
  3.7500000000000000e-01   1.3522959101373377e-10
  3.8000000000000000e-01   1.3615773558933624e-10
  3.8500000000000001e-01   1.3710631655863741e-10
  3.9000000000000001e-01   1.3807573304881504e-10
  3.9500000000000002e-01   1.3906637438506535e-10
  4.0000000000000002e-01   1.4007861727639291e-10
  4.0500000000000003e-01   1.4111282266487884e-10
  4.1000000000000003e-01   1.4216933221030053e-10
  4.1500000000000004e-01   1.4324846438143952e-10
  4.1999999999999998e-01   1.4435051012528438e-10
  4.2499999999999999e-01   1.4547572808583355e-10
  4.2999999999999999e-01   1.4662433934540243e-10
  4.3500000000000000e-01   1.4779652166347198e-10
  4.4000000000000000e-01   1.4899240319137438e-10
  4.4500000000000001e-01   1.5021205564570398e-10
  4.5000000000000001e-01   1.5145548692954564e-10
  4.5500000000000002e-01   1.5272263319869696e-10
  4.6000000000000002e-01   1.5401335038028582e-10
  4.6500000000000002e-01   1.5532740516389156e-10
  4.7000000000000003e-01   1.5666446550068407e-10
  4.7500000000000003e-01   1.5802409066454947e-10
  4.7999999999999998e-01   1.5940572095078221e-10
  4.8499999999999999e-01   1.6080866711293272e-10
  4.8999999999999999e-01   1.6223209966674042e-10
  4.9500000000000000e-01   1.6367503822172875e-10
  5.0000000000000000e-01   1.6513634103558501e-10
  5.0500000000000000e-01   1.6661469502340459e-10
  5.1000000000000001e-01   1.6810860649237984e-10
  5.1500000000000001e-01   1.6961639291136290e-10
  5.2000000000000002e-01   1.7113617606240936e-10
  5.2500000000000002e-01   1.7266587695595325e-10
  5.3000000000000003e-01   1.7420321292037920e-10
  5.3500000000000003e-01   1.7574569729772567e-10
  5.4000000000000004e-01   1.7729064218719980e-10
  5.4500000000000004e-01   1.7883516467395055e-10
  5.5000000000000004e-01   1.8037619695910243e-10
  5.5500000000000005e-01   1.8191050076559988e-10
  5.6000000000000005e-01   1.8343468633063108e-10
  5.6500000000000006e-01   1.8494523620784997e-10
  5.7000000000000006e-01   1.8643853399099655e-10
  5.7500000000000007e-01   1.8791089793589085e-10
  5.7999999999999996e-01   1.8935861930294049e-10
  5.8499999999999996e-01   1.9077800507176313e-10
  5.8999999999999997e-01   1.9216542449965350e-10
  5.9499999999999997e-01   1.9351735881429245e-10
  5.9999999999999998e-01   1.9483045315753431e-10
  6.0499999999999998e-01   1.9610156974123000e-10
  6.0999999999999999e-01   1.9732784104782166e-10
  6.1499999999999999e-01   1.9850672181717448e-10
  6.2000000000000000e-01   1.9963603851452417e-10
  6.2500000000000000e-01   2.0071403497811679e-10
  6.3000000000000000e-01   2.0173941300170155e-10
  6.3500000000000001e-01   2.0271136671615412e-10
  6.4000000000000001e-01   2.0362960979219653e-10
  6.4500000000000002e-01   2.0449439468571026e-10
  6.5000000000000002e-01   2.0530652337883277e-10
  6.5500000000000003e-01   2.0606734932256847e-10
  6.6000000000000003e-01   2.0677877054740056e-10
  6.6500000000000004e-01   2.0744321416482278e-10
  6.7000000000000004e-01   2.0806361272290136e-10
  6.7500000000000004e-01   2.0864337309260622e-10
  6.8000000000000005e-01   2.0918633874058555e-10
  6.8500000000000005e-01   2.0969674638265128e-10
  6.9000000000000006e-01   2.1017917810748914e-10
  6.9500000000000006e-01   2.1063851011165029e-10
  7.0000000000000007e-01   2.1107985919661521e-10
  7.0499999999999996e-01   2.1150852815047039e-10
  7.0999999999999996e-01   2.1192995107574114e-10
  7.1499999999999997e-01   2.1234963963734977e-10
  7.1999999999999997e-01   2.1277313109708302e-10
  7.2499999999999998e-01   2.1320593887989699e-10
  7.2999999999999998e-01   2.1365350628907272e-10
  7.3499999999999999e-01   2.1412116385719231e-10
  7.3999999999999999e-01   2.1461409069282939e-10
  7.4500000000000000e-01   2.1513728006261571e-10
  7.5000000000000000e-01   2.1569550933777241e-10
  7.5500000000000000e-01   2.1629331433536370e-10
  7.6000000000000001e-01   2.1693496799856499e-10
  7.6500000000000001e-01   2.1762446328769628e-10
  7.7000000000000002e-01   2.1836550009452369e-10
  7.7500000000000002e-01   2.1916147594589303e-10
  7.8000000000000003e-01   2.2001548022821415e-10
  7.8500000000000003e-01   2.2093029164056355e-10
  7.9000000000000004e-01   2.2190837857003156e-10
  7.9500000000000004e-01   2.2295190207702539e-10
  8.0000000000000004e-01   2.2406272117930405e-10
  8.0500000000000005e-01   2.2524240013034728e-10
  8.1000000000000005e-01   2.2649221739897831e-10
  8.1500000000000006e-01   2.2781317607203421e-10
  8.2000000000000006e-01   2.2920601541926431e-10
  8.2500000000000007e-01   2.3067122337876125e-10
  8.3000000000000007e-01   2.3220904974137337e-10
  8.3499999999999996e-01   2.3381951983312035e-10
  8.3999999999999997e-01   2.3550244851517965e-10
  8.4499999999999997e-01   2.3725745434107532e-10
  8.4999999999999998e-01   2.3908397373008957e-10
  8.5499999999999998e-01   2.4098127503432771e-10
  8.5999999999999999e-01   2.4294847239415086e-10
  8.6499999999999999e-01   2.4498453929280362e-10
  8.7000000000000000e-01   2.4708832173586342e-10
  8.7500000000000000e-01   2.4925855099468254e-10
  8.8000000000000000e-01   2.5149385586523380e-10
  8.8500000000000001e-01   2.5379277440476064e-10
  8.9000000000000001e-01   2.5615376511845233e-10
  8.9500000000000002e-01   2.5857521757699226e-10
  9.0000000000000002e-01   2.6105546245342325e-10
  9.0500000000000003e-01   2.6359278097436773e-10
  9.1000000000000003e-01   2.6618541378629700e-10
  9.1500000000000004e-01   2.6883156924237443e-10
  9.2000000000000004e-01   2.7152943111946518e-10
  9.2500000000000004e-01   2.7427716577827014e-10
  9.3000000000000005e-01   2.7707292878229422e-10
  9.3500000000000005e-01   2.7991487099358609e-10
  9.4000000000000006e-01   2.8280114416484565e-10
  9.4500000000000006e-01   2.8572990604886527e-10
  9.5000000000000007e-01   2.8869932504708383e-10
  9.5500000000000007e-01   2.9170758441972232e-10
  9.5999999999999996e-01   2.9475288608017749e-10
  9.6499999999999997e-01   2.9783345399650142e-10
  9.6999999999999997e-01   3.0094753722260940e-10
  9.7499999999999998e-01   3.0409341258156821e-10
  9.7999999999999998e-01   3.0726938702289476e-10
  9.8499999999999999e-01   3.1047379967519521e-10
  9.8999999999999999e-01   3.1370502361489616e-10
  9.9500000000000000e-01   3.1696146737101254e-10
  1.0000000000000000e+00   3.2024157618520528e-10
  1.0050000000000001e+00   3.2354383304553271e-10
  1.0100000000000000e+00   3.2686675951146302e-10
  1.0150000000000001e+00   3.3020891634687908e-10
  1.0200000000000000e+00   3.3356890397694384e-10
  1.0249999999999999e+00   3.3694536278384272e-10
  1.0300000000000000e+00   3.4033697325558166e-10
  1.0349999999999999e+00   3.4374245600118087e-10
  1.0400000000000000e+00   3.4716057164480514e-10
  1.0449999999999999e+00   3.5059012061058398e-10
  1.0500000000000000e+00   3.5402994280910377e-10
  1.0549999999999999e+00   3.5747891723583995e-10
  1.0600000000000001e+00   3.6093596149108254e-10
  1.0649999999999999e+00   3.6440003123021887e-10
  1.0700000000000001e+00   3.6787011955263628e-10
  1.0750000000000000e+00   3.7134525633685273e-10
  1.0800000000000001e+00   3.7482450752892881e-10
  1.0850000000000000e+00   3.7830697439066043e-10
  1.0900000000000001e+00   3.8179179271352577e-10
  1.0950000000000000e+00   3.8527813200388125e-10
  1.1000000000000001e+00   3.8876519464443454e-10
  1.1050000000000000e+00   3.9225221503659763e-10
  1.1100000000000001e+00   3.9573845872791263e-10
  1.1150000000000000e+00   3.9922322152837264e-10
  1.1200000000000001e+00   4.0270582861909779e-10
  1.1250000000000000e+00   4.0618563365651575e-10
  1.1300000000000001e+00   4.0966201787486962e-10
  1.1350000000000000e+00   4.1313438918961298e-10
  1.1400000000000001e+00   4.1660218130398528e-10
  1.1450000000000000e+00   4.2006485282078897e-10
  1.1500000000000001e+00   4.2352188636124758e-10
  1.1550000000000000e+00   4.2697278769250368e-10
  1.1599999999999999e+00   4.3041708486522859e-10
  1.1650000000000000e+00   4.3385432736259837e-10
  1.1699999999999999e+00   4.3728408526171448e-10
  1.1750000000000000e+00   4.4070594840846332e-10
  1.1799999999999999e+00   4.4411952560660625e-10
  1.1850000000000001e+00   4.4752444382183318e-10
  1.1899999999999999e+00   4.5092034740138552e-10
  1.1950000000000001e+00   4.5430689730971650e-10
  1.2000000000000000e+00   4.5768377038067416e-10
  1.2050000000000001e+00   4.6105065858648830e-10
  1.2100000000000000e+00   4.6440726832388035e-10
  1.2150000000000001e+00   4.6775331971750042e-10
  1.2200000000000000e+00   4.7108854594085054e-10
  1.2250000000000001e+00   4.7441269255483904e-10
  1.2300000000000000e+00   4.7772551686404235e-10
  1.2350000000000001e+00   4.8102678729070299e-10
  1.2400000000000000e+00   4.8431628276655272e-10
  1.2450000000000001e+00   4.8759379214242312e-10
  1.2500000000000000e+00   4.9085911361565853e-10
  1.2550000000000001e+00   4.9411205417532535e-10
  1.2600000000000000e+00   4.9735242906521344e-10
  1.2650000000000001e+00   5.0058006126458338e-10
  1.2700000000000000e+00   5.0379478098669471e-10
  1.2750000000000001e+00   5.0699642519508973e-10
  1.2800000000000000e+00   5.1018483713765279e-10
  1.2849999999999999e+00   5.1335986589848792e-10
  1.2900000000000000e+00   5.1652136596765074e-10
  1.2949999999999999e+00   5.1966919682883260e-10
  1.3000000000000000e+00   5.2280322256508188e-10
  1.3049999999999999e+00   5.2592331148270661e-10
  1.3100000000000001e+00   5.2902933575353643e-10
  1.3149999999999999e+00   5.3212117107571836e-10
  1.3200000000000001e+00   5.3519869635334084e-10
  1.3250000000000000e+00   5.3826179339512423e-10
  1.3300000000000001e+00   5.4131034663254294e-10
  1.3350000000000000e+00   5.4434424285775162e-10
  1.3400000000000001e+00   5.4736337098173443e-10
  1.3450000000000000e+00   5.5036762181317833e-10
  1.3500000000000001e+00   5.5335688785860883e-10
  1.3550000000000000e+00   5.5633106314435220e-10
  1.3600000000000001e+00   5.5929004306102054e-10
  1.3650000000000000e+00   5.6223372423120994e-10
  1.3700000000000001e+00   5.6516200440117622e-10
  1.3750000000000000e+00   5.6807478235735233e-10
  1.3800000000000001e+00   5.7097195786858540e-10
  1.3850000000000000e+00   5.7385343165507158e-10
  1.3900000000000001e+00   5.7671910538500645e-10
  1.3950000000000000e+00   5.7956888170004648e-10
  1.4000000000000001e+00   5.8240266427073013e-10
  1.4050000000000000e+00   5.8522035788308705e-10
  1.4099999999999999e+00   5.8802186855768431e-10
  1.4150000000000000e+00   5.9080710370244580e-10
  1.4199999999999999e+00   5.9357597230062727e-10
  1.4250000000000000e+00   5.9632838513537078e-10
  1.4299999999999999e+00   5.9906425505227784e-10
  1.4350000000000001e+00   6.0178349726154811e-10
  1.4399999999999999e+00   6.0448602968114146e-10
  1.4450000000000001e+00   6.0717177332256419e-10
  1.4500000000000000e+00   6.0984065272077212e-10
  1.4550000000000001e+00   6.1249259640975389e-10
  1.4600000000000000e+00   6.1512753744530141e-10
  1.4650000000000001e+00   6.1774541397641746e-10
  1.4700000000000000e+00   6.2034616986681672e-10
  1.4750000000000001e+00   6.2292975536782342e-10
  1.4800000000000000e+00   6.2549612784394721e-10
  1.4850000000000001e+00   6.2804525255221476e-10
  1.4900000000000000e+00   6.3057710347626893e-10
  1.4950000000000001e+00   6.3309166421602872e-10
  1.5000000000000000e+00   6.3558892893348860e-10
  1.5050000000000001e+00   6.3806890335503785e-10
  1.5100000000000000e+00   6.4053160583037288e-10
  1.5150000000000001e+00   6.4297706844780588e-10
  1.5200000000000000e+00   6.4540533820539069e-10
  1.5250000000000001e+00   6.4781647823694949e-10
  1.5300000000000000e+00   6.5021056909165139e-10
  1.5350000000000001e+00   6.5258771006530782e-10
  1.5400000000000000e+00   6.5494802058112960e-10
  1.5449999999999999e+00   6.5729164161707335e-10
  1.5500000000000000e+00   6.5961873717641196e-10
  1.5549999999999999e+00   6.6192949579752157e-10
  1.5600000000000001e+00   6.6422413209826274e-10
  1.5649999999999999e+00   6.6650288834967642e-10
  1.5700000000000001e+00   6.6876603607304141e-10
  1.5750000000000000e+00   6.7101387765363432e-10
  1.5800000000000001e+00   6.7324674796385617e-10
  1.5850000000000000e+00   6.7546501598766882e-10
  1.5900000000000001e+00   6.7766908643756707e-10
  1.5950000000000000e+00   6.7985940135471813e-10
  1.6000000000000001e+00   6.8203644168214655e-10
  1.6050000000000000e+00   6.8420072880029459e-10
  1.6100000000000001e+00   6.8635282601375594e-10
  1.6150000000000000e+00   6.8849333997740459e-10
  1.6200000000000001e+00   6.9062292204980869e-10
  1.6250000000000000e+00   6.9274226956144281e-10
  1.6300000000000001e+00   6.9485212698500216e-10
  1.6350000000000000e+00   6.9695328699502368e-10
  1.6400000000000001e+00   6.9904659140401531e-10
  1.6450000000000000e+00   7.0113293196242465e-10
  1.6500000000000001e+00   7.0321325101016423e-10
  1.6550000000000000e+00   7.0528854196768903e-10
  1.6600000000000001e+00   7.0735984965539178e-10
  1.6650000000000000e+00   7.0942827043070948e-10
  1.6699999999999999e+00   7.1149495213329561e-10
  1.6750000000000000e+00   7.1356109382965625e-10
  1.6799999999999999e+00   7.1562794534987722e-10
  1.6850000000000001e+00   7.1769680661036002e-10
  1.6899999999999999e+00   7.1976902671800201e-10
  1.6950000000000001e+00   7.2184600285282693e-10
  1.7000000000000000e+00   7.2392917892766939e-10
  1.7050000000000001e+00   7.2602004402538368e-10
  1.7100000000000000e+00   7.2812013061567180e-10
  1.7150000000000001e+00   7.3023101255560410e-10
  1.7200000000000000e+00   7.3235430287956149e-10
  1.7250000000000001e+00   7.3449165138619819e-10
  1.7300000000000000e+00   7.3664474203176845e-10
  1.7350000000000001e+00   7.3881529014070885e-10
  1.7400000000000000e+00   7.4100503944601361e-10
  1.7450000000000001e+00   7.4321575897328562e-10
  1.7500000000000000e+00   7.4544923978368511e-10
  1.7550000000000001e+00   7.4770729159199069e-10
  1.7600000000000000e+00   7.4999173927703061e-10
  1.7650000000000001e+00   7.5230441930232839e-10
  1.7700000000000000e+00   7.5464717606546250e-10
  1.7750000000000001e+00   7.5702185819483781e-10
  1.7800000000000000e+00   7.5943031481270241e-10
  1.7850000000000001e+00   7.6187439178318880e-10
  1.7900000000000000e+00   7.6435592796373321e-10
  1.7949999999999999e+00   7.6687675147784982e-10
  1.8000000000000000e+00   7.6943867602651250e-10
  1.8049999999999999e+00   7.7204349725450373e-10
  1.8100000000000001e+00   7.7469298918720160e-10
  1.8149999999999999e+00   7.7738890075212638e-10
  1.8200000000000001e+00   7.8013295239832942e-10
  1.8250000000000000e+00   7.8292683282547221e-10
  1.8300000000000001e+00   7.8577219583303914e-10
  1.8350000000000000e+00   7.8867065729878802e-10
  1.8400000000000001e+00   7.9162379229410067e-10
  1.8450000000000000e+00   7.9463313234251910e-10
  1.8500000000000001e+00   7.9770016282635925e-10
  1.8550000000000000e+00   8.0082632054500052e-10
  1.8600000000000001e+00   8.0401299142714958e-10
  1.8650000000000000e+00   8.0726150839814837e-10
  1.8700000000000001e+00   8.1057314940239581e-10
  1.8750000000000000e+00   8.1394913557976163e-10
  1.8800000000000001e+00   8.1739062959413465e-10
  1.8850000000000000e+00   8.2089873411132324e-10
  1.8900000000000001e+00   8.2447449042284666e-10
  1.8950000000000000e+00   8.2811887721166019e-10
  1.9000000000000001e+00   8.3183280945528018e-10
  1.9050000000000000e+00   8.3561713746150547e-10
  1.9100000000000001e+00   8.3947264603166038e-10
  1.9150000000000000e+00   8.4340005374617115e-10
  1.9199999999999999e+00   8.4740001236723306e-10
  1.9250000000000000e+00   8.5147310635341258e-10
  1.9299999999999999e+00   8.5561985248117596e-10
  1.9350000000000001e+00   8.5984069956858252e-10
  1.9399999999999999e+00   8.6413602829666283e-10
  1.9450000000000001e+00   8.6850615112443670e-10
  1.9500000000000000e+00   8.7295131229387298e-10
  1.9550000000000001e+00   8.7747168792169791e-10
  1.9600000000000000e+00   8.8206738617536303e-10
  1.9650000000000001e+00   8.8673844753115032e-10
  1.9700000000000000e+00   8.9148484511291127e-10
  1.9750000000000001e+00   8.9630648511059677e-10
  1.9800000000000000e+00   9.0120320727830879e-10
  1.9850000000000001e+00   9.0617478551226778e-10
